Ch1,Ch2,Ch3,Ch4,Label
-102.56301638484001,51.5807001888752,13.643155038356781,120.27518257498741,rest
52.538114577531815,122.4293649494648,14.121862232685089,-62.590965658426285,rest
35.90303957462311,119.55712178349495,15.438307017087936,-25.850188493728638,rest
-96.22014605998993,55.05132734775543,6.8215775191783905,147.68116945028305,rest
-15.198953419923782,88.44115415215492,15.198953419923782,-10.770911872386932,rest
67.25836080312729,131.04609444737434,12.805417448282242,-82.09828382730484,rest
-53.1364985704422,68.81415918469429,2.7525663673877716,120.39485937356949,rest
-65.70256242156029,65.70256242156029,7.539638310670853,66.77965360879898,rest
73.72090792655945,132.72156962752342,24.055036514997482,-94.06596368551254,rest
-17.472812592983246,92.15113490819931,9.215113490819931,52.65779137611389,rest
-89.27889174222946,53.25617536902428,4.42804154753685,130.56738725304604,rest
44.63944587111473,117.7619698047638,18.310550183057785,-72.16510954499245,rest
36.62110036611557,120.15550577640533,22.97794532775879,-33.38982680439949,rest
-94.784024477005,59.12033849954605,-1.3164447844028473,150.79276621341705,rest
-13.164447844028473,86.76567897200584,12.44638705253601,-9.933174282312393,rest
74.79799911379814,130.56738725304604,21.78117734193802,-78.6276566684246,rest
-56.487448930740356,67.61739119887352,8.497052699327469,120.8735665678978,rest
-63.18934965133667,67.37803760170937,6.7019007205963135,70.96834155917168,rest
70.60931116342545,130.32803365588188,16.276044607162476,-100.16948041319847,rest
-14.959599822759628,95.38240846991539,12.326710253953934,57.44486331939697,rest
-97.53659084439278,51.82005378603935,3.709980756044388,121.59162735939026,rest
44.16073867678642,120.03582897782326,17.472812592983246,-72.16510954499245,rest
42.60494029521942,117.52261620759964,11.129942268133163,-27.046956479549408,rest
-90.35598292946815,54.33326655626297,7.0609311163425446,148.5189070403576,rest
-10.531558275222778,87.84277015924454,10.292204678058624,-0.8377375900745392,rest
69.41254317760468,131.52480164170265,16.994105398654938,-82.09828382730484,rest
-73.72090792655945,70.60931116342545,3.590303957462311,105.43525955080986,rest
-63.90741044282913,64.02708724141121,15.198953419923782,78.1489494740963,rest
67.25836080312729,128.1738512814045,34.94562518596649,-108.18782591819763,rest
-3.590303957462311,103.75978437066078,-9.933174282312393,62.590965658426285,rest
-93.46757969260216,52.29876098036766,-2.7525663673877716,128.77223527431488,rest
44.40009227395058,112.97489786148071,14.959599822759628,-73.24220073223114,rest
33.03079640865326,116.44552502036095,21.541823744773865,-34.825948387384415,rest
-90.47565972805023,55.41035774350166,7.300284713506699,148.04019984602928,rest
-8.736406296491623,86.28697177767754,6.7019007205963135,-1.0770911872386932,rest
64.14676403999329,131.04609444737434,25.610834896564484,-89.03953814506531,rest
-67.01900720596313,66.1812696158886,8.736406296491623,118.36035379767418,rest
-62.35161206126213,63.5483800470829,7.180607914924622,63.787733644247055,rest
68.2157751917839,127.57546728849411,22.738591730594635,-106.75170433521271,rest
-7.898668706417084,92.7495189011097,6.462547123432159,59.12033849954605,rest
-103.6401075720787,48.947810620069504,3.3509503602981567,128.29352807998657,rest
51.82005378603935,117.40293940901756,20.823762953281403,-67.37803760170937,rest
38.057221949100494,114.53069624304771,14.121862232685089,-26.20921888947487,rest
-90.35598292946815,52.65779137611389,12.08735665678978,138.34637916088104,rest
-12.08735665678978,92.86919569969177,1.7951519787311554,6.462547123432159,rest
71.92575594782829,132.3625392317772,22.14020773768425,-81.85893023014069,rest
-64.38611763715744,72.76349353790283,2.0345055758953094,111.77812987565994,rest
-67.25836080312729,67.13868400454521,15.079276621341705,64.38611763715744,rest
72.28478634357452,132.12318563461304,5.146102339029312,-90.83469012379646,rest
-13.523478239774704,94.06596368551254,8.616729497909546,53.1364985704422,rest
-97.17756044864655,51.93973058462143,6.342870324850082,131.64447844028473,rest
43.20332428812981,113.21425145864487,16.87442860007286,-70.72898796200752,rest
40.33108112215996,119.55712178349495,22.020530939102173,-35.78336277604103,rest
-91.91178131103516,53.85455936193466,-1.4361215829849243,146.24504786729813,rest
-23.33697572350502,87.60341656208038,9.69382068514824,-9.813497483730316,rest
80.66216224431992,134.03801441192627,22.97794532775879,-71.68640235066414,rest
-67.85674479603767,68.09609839320183,2.1541823744773865,115.96681782603264,rest
-62.11225846409798,63.787733644247055,13.762831836938858,68.2157751917839,rest
71.20769515633583,129.1312656700611,16.51539820432663,-96.22014605998993,rest
-8.138022303581238,92.27081170678139,13.28412464261055,50.862639397382736,rest
-93.82661008834839,50.862639397382736,-1.4361215829849243,135.83316639065742,rest
39.613020330667496,114.77004984021187,13.523478239774704,-67.01900720596313,rest
39.253989934921265,119.43744498491287,17.7121661901474,-27.645340472459793,rest
-96.22014605998993,49.90522500872612,-5.505132734775543,140.85959193110466,rest
-10.292204678058624,85.32955738902092,12.685740649700165,-2.6328895688056946,rest
73.24220073223114,127.69514408707619,25.0124509036541,-81.14086943864822,rest
-67.01900720596313,70.48963436484337,-3.2312735617160797,112.37651386857033,rest
-73.36187753081322,64.74514803290367,8.975759893655777,73.4815543293953,rest
85.80826458334923,127.45579048991203,14.959599822759628,-96.57917645573616,rest
-12.805417448282242,95.38240846991539,15.079276621341705,44.16073867678642,rest
-92.03145810961723,51.46102339029312,-1.6754751801490784,134.99542880058289,rest
38.5359291434288,110.82071548700333,22.14020773768425,-72.04543274641037,rest
42.485263496637344,123.26710253953934,9.334790289402008,-26.5682492852211,rest
-97.65626764297485,56.128418534994125,5.385455936193466,138.34637916088104,rest
-8.377375900745392,84.73117339611053,17.951519787311554,8.138022303581238,rest
71.44704875349998,131.40512484312057,16.51539820432663,-92.86919569969177,rest
-58.64163130521774,67.61739119887352,8.01834550499916,104.59752196073532,rest
-57.44486331939697,62.71064245700836,0.8377375900745392,82.21796062588692,rest
67.61739119887352,128.05417448282242,24.294390112161636,-96.22014605998993,rest
-13.403801441192627,97.4169140458107,-2.3935359716415405,39.613020330667496,rest
-91.43307411670685,52.41843777894974,5.864163130521774,136.67090398073196,rest
38.29657554626465,113.81263545155525,16.754751801490784,-65.1041784286499,rest
43.44267788529396,119.3177681863308,15.438307017087936,-34.10788759589195,rest
-91.1937205195427,55.53003454208374,5.864163130521774,147.9205230474472,rest
-14.600569427013397,86.40664857625961,13.643155038356781,1.9148287773132324,rest
73.36187753081322,130.92641764879227,20.704086154699326,-81.61957663297653,rest
-62.11225846409798,68.33545199036598,10.411881476640701,109.26491710543633,rest
-71.80607914924622,61.27452087402344,9.215113490819931,70.13060396909714,rest
71.20769515633583,127.93449768424034,18.54990378022194,-95.74143886566162,rest
-8.736406296491623,92.51016530394554,10.651235073804855,46.79362824559212,rest
-105.31558275222778,47.03298184275627,3.1115967631340027,127.57546728849411,rest
41.647525906562805,111.29942268133163,24.773097306489944,-78.74733346700668,rest
53.734882563352585,122.4293649494648,11.967679858207703,-14.361215829849243,rest
-91.672427713871,58.28260090947151,0.3590303957462311,144.09086549282074,rest
-20.94343975186348,83.41472861170769,25.969865292310715,-4.069011151790619,rest
75.87509030103683,135.23478239774704,-0.5983839929103851,-76.11444389820099,rest
-59.83839929103851,68.2157751917839,2.6328895688056946,107.58944192528725,rest
-64.50579443573952,68.69448238611221,6.462547123432159,79.58507105708122,rest
73.24220073223114,130.08868005871773,26.92727968096733,-95.74143886566162,rest
-9.69382068514824,95.38240846991539,2.9919199645519257,38.5359291434288,rest
-95.74143886566162,51.22166979312897,5.62480953335762,134.27736800909042,rest
43.682031482458115,112.4961906671524,19.148287773132324,-59.95807608962059,rest
40.57043471932411,119.43744498491287,22.858268529176712,-38.057221949100494,rest
-90.23630613088608,54.33326655626297,-9.813497483730316,153.90436297655106,rest
-20.46473255753517,84.61149659752846,11.608649462461472,7.778991907835007,rest
75.15702950954437,130.32803365588188,23.33697572350502,-87.12470936775208,rest
-63.06967285275459,72.76349353790283,9.334790289402008,114.41101944446564,rest
-66.6599768102169,57.20550972223282,6.223193526268005,70.48963436484337,rest
65.70256242156029,128.05417448282242,16.1563678085804,-97.65626764297485,rest
-3.709980756044388,93.82661008834839,11.369295865297318,44.16073867678642,rest
-102.92204678058624,47.75104263424873,7.0609311163425446,129.2509424686432,rest
34.94562518596649,107.70911872386932,18.430226981639862,-68.33545199036598,rest
52.897144973278046,119.67679858207703,3.590303957462311,-23.935359716415405,rest
-92.15113490819931,51.93973058462143,10.411881476640701,146.3647246658802,rest
-14.959599822759628,83.41472861170769,21.182793349027634,3.709980756044388,rest
70.13060396909714,128.05417448282242,11.129942268133163,-91.43307411670685,rest
-60.4367832839489,68.45512878894806,6.103516727685928,112.13716027140617,rest
-64.98450163006783,59.24001529812813,10.292204678058624,84.01311260461807,rest
71.92575594782829,125.06225451827049,20.704086154699326,-95.14305487275124,rest
-3.3509503602981567,96.45949965715408,11.488972663879395,40.57043471932411,rest
-101.24657160043716,46.434597849845886,0.8377375900745392,126.37869930267334,rest
28.483078062534332,106.51235073804855,17.113782197237015,-60.197429686784744,rest
54.33326655626297,120.39485937356949,31.474998027086258,-32.07338201999664,rest
-93.82661008834839,51.93973058462143,-11.24961906671524,147.56149265170097,rest
-11.488972663879395,85.09020379185677,6.5822239220142365,12.566063851118088,rest
77.19153508543968,131.04609444737434,24.17471331357956,-86.64600217342377,rest
-60.4367832839489,68.57480558753014,3.2312735617160797,110.10265469551086,rest
-66.54030001163483,57.803893715143204,9.215113490819931,82.69666782021523,rest
73.24220073223114,128.29352807998657,14.959599822759628,-97.53659084439278,rest
-6.103516727685928,92.51016530394554,11.967679858207703,43.80170828104019,rest
-101.00721800327301,47.87071943283081,-0.3590303957462311,130.32803365588188,rest
34.466917991638184,108.42717951536179,16.635075002908707,-66.30094641447067,rest
42.60494029521942,118.36035379767418,12.326710253953934,-34.34724119305611,rest
-91.31339731812477,52.538114577531815,5.744486331939697,143.85151189565659,rest
-16.994105398654938,85.80826458334923,16.994105398654938,4.547718346118927,rest
65.94191601872444,128.29352807998657,19.866348564624786,-90.83469012379646,rest
-53.49552896618843,74.07993832230568,8.01834550499916,107.94847232103348,rest
-65.58288562297821,58.40227770805359,7.65931510925293,83.17537501454353,rest
71.56672555208206,127.69514408707619,14.361215829849243,-101.00721800327301,rest
-8.497052699327469,94.42499408125877,11.848003059625626,38.894959539175034,rest
-97.05788365006447,47.272335439920425,8.616729497909546,130.56738725304604,rest
34.466917991638184,107.35008832812309,16.87442860007286,-64.26644083857536,rest
48.34942662715912,117.40293940901756,17.113782197237015,-36.74077716469765,rest
-91.31339731812477,47.15265864133835,5.026425540447235,143.61215829849243,rest
-22.14020773768425,82.337637424469,25.0124509036541,0.23935359716415405,rest
78.6276566684246,128.29352807998657,7.300284713506699,-78.1489494740963,rest
-59.359692096710205,67.61739119887352,5.744486331939697,106.87138113379478,rest
-70.96834155917168,56.128418534994125,21.422146946191788,75.63573670387268,rest
67.97642159461975,126.25902250409126,5.026425540447235,-96.45949965715408,rest
1.0770911872386932,94.18564048409462,7.419961512088776,43.44267788529396,rest
-97.89562124013901,45.59686025977135,0.3590303957462311,134.51672160625458,rest
25.132127702236176,100.5285108089447,19.986025363206863,-63.5483800470829,rest
44.041061878204346,117.7619698047638,17.472812592983246,-33.629180401563644,rest
-93.10854929685593,48.110073029994965,6.7019007205963135,146.00569427013397,rest
-20.704086154699326,76.71282789111137,19.148287773132324,5.505132734775543,rest
77.90959587693214,130.44771045446396,14.720246225595474,-88.32147735357285,rest
-67.37803760170937,60.4367832839489,0.9574143886566162,106.39267393946648,rest
-67.25836080312729,55.05132734775543,7.65931510925293,78.1489494740963,rest
69.7715735733509,120.51453617215157,19.38764137029648,-97.77594444155693,rest
-7.898668706417084,90.95436692237854,17.233458995819092,34.825948387384415,rest
-96.57917645573616,43.56235468387604,1.4361215829849243,135.4741359949112,rest
29.32081565260887,104.47784516215324,13.762831836938858,-65.46320882439613,rest
51.10199299454689,115.36843383312225,17.233458995819092,-28.722431659698486,rest
-94.06596368551254,47.03298184275627,-0.8377375900745392,135.83316639065742,rest
-16.03669100999832,78.02927267551422,10.770911872386932,14.720246225595474,rest
76.71282789111137,123.50645613670349,20.823762953281403,-84.85085019469261,rest
-55.769388139247894,68.2157751917839,4.906748741865158,105.91396674513817,rest
-77.90959587693214,51.46102339029312,5.385455936193466,80.18345504999161,rest
79.22604066133499,121.11292016506195,12.685740649700165,-88.32147735357285,rest
-1.9148287773132324,90.83469012379646,28.483078062534332,36.26206997036934,rest
-94.06596368551254,46.31492105126381,-8.01834550499916,139.78250074386597,rest
33.50950360298157,101.00721800327301,15.438307017087936,-58.162924110889435,rest
45.95589065551758,115.96681782603264,20.94343975186348,-39.01463633775711,rest
-96.45949965715408,46.434597849845886,4.069011151790619,140.6202383339405,rest
-19.866348564624786,76.11444389820099,13.882508635520935,17.472812592983246,rest
71.08801835775375,123.74580973386765,19.986025363206863,-90.59533652663231,rest
-68.2157751917839,63.90741044282913,6.462547123432159,98.13497483730316,rest
-58.28260090947151,55.41035774350166,12.566063851118088,97.4169140458107,rest
68.57480558753014,123.02774894237518,20.704086154699326,-91.55275091528893,rest
-2.5132127702236176,91.91178131103516,11.24961906671524,36.62110036611557,rest
-102.44333958625793,41.52784910798073,6.7019007205963135,134.51672160625458,rest
32.67176601290703,103.99913796782494,21.063116550445557,-63.787733644247055,rest
53.85455936193466,116.32584822177887,5.505132734775543,-34.825948387384415,rest
-95.8611156642437,48.70845702290535,0.11967679858207703,141.33829912543297,rest
-16.395721405744553,77.55056548118591,12.566063851118088,10.770911872386932,rest
72.88317033648491,123.50645613670349,16.395721405744553,-90.95436692237854,rest
-52.41843777894974,64.38611763715744,6.8215775191783905,105.91396674513817,rest
-70.13060396909714,51.341346591711044,6.5822239220142365,86.40664857625961,rest
68.69448238611221,119.91615217924118,18.310550183057785,-94.66434767842293,rest
-2.0345055758953094,91.43307411670685,17.592489391565323,31.594674825668335,rest
-98.25465163588524,42.24590989947319,-2.7525663673877716,129.1312656700611,rest
35.663685977458954,99.81045001745224,16.395721405744553,-55.88906493782997,rest
47.15265864133835,110.9403922855854,16.1563678085804,-36.9801307618618,rest
-93.46757969260216,42.844293892383575,3.1115967631340027,145.2876334786415,rest
-28.842108458280563,70.72898796200752,25.132127702236176,1.3164447844028473,rest
72.64381673932076,122.9080721437931,9.334790289402008,-84.01311260461807,rest
-67.97642159461975,52.77746817469597,9.454467087984085,95.8611156642437,rest
65.46320882439613,120.51453617215157,16.87442860007286,-99.45141962170601,rest
-2.0345055758953094,89.63792213797569,9.334790289402008,30.51758363842964,rest
-98.01529803872108,43.32300108671188,1.9148287773132324,138.46605595946312,rest
30.51758363842964,97.4169140458107,19.986025363206863,-60.79581367969513,rest
48.110073029994965,114.0519890487194,9.813497483730316,-36.74077716469765,rest
-93.58725649118423,47.272335439920425,1.6754751801490784,138.70540955662727,rest
-18.669580578804016,77.67024227976799,14.48089262843132,9.334790289402008,rest
75.39638310670853,122.54904174804688,20.58440935611725,-88.68050774931908,rest
-57.08583292365074,65.94191601872444,1.7951519787311554,109.3845939040184,rest
-75.15702950954437,52.77746817469597,4.308364748954773,77.55056548118591,rest
72.4044631421566,118.83906099200249,19.507318168878555,-97.65626764297485,rest
-4.188687950372696,92.51016530394554,11.369295865297318,31.953705221414566,rest
-91.79210451245308,43.08364748954773,8.497052699327469,136.07251998782158,rest
34.94562518596649,97.4169140458107,22.97794532775879,-57.20550972223282,rest
44.041061878204346,111.65845307707787,10.651235073804855,-44.2804154753685,rest
-89.63792213797569,43.44267788529396,4.069011151790619,144.44989588856697,rest
-19.028610974550247,73.00284713506699,11.967679858207703,17.472812592983246,rest
73.36187753081322,125.18193131685257,18.07119658589363,-90.47565972805023,rest
-56.487448930740356,64.50579443573952,7.419961512088776,104.23849156498909,rest
-70.13060396909714,52.65779137611389,5.265779137611389,90.23630613088608,rest
67.25836080312729,117.64229300618172,21.422146946191788,-97.65626764297485,rest
1.7951519787311554,93.10854929685593,7.0609311163425446,25.251804500818253,rest
-96.93820685148239,43.80170828104019,6.5822239220142365,140.73991513252258,rest
31.83402842283249,98.25465163588524,13.643155038356781,-62.231935262680054,rest
41.76720270514488,109.62394750118256,22.49923813343048,-47.63136583566666,rest
-81.2605462372303,51.10199299454689,-1.6754751801490784,143.49248149991035,rest
-27.046956479549408,68.93383598327637,8.257699102163315,10.172527879476547,rest
71.80607914924622,126.6180528998375,15.079276621341705,-91.79210451245308,rest
-54.572620153427124,60.915490478277206,3.709980756044388,98.13497483730316,rest
-80.90151584148407,48.34942662715912,28.363401263952255,79.10636386275291,rest
81.2605462372303,125.30160811543465,-4.906748741865158,-77.31121188402176,rest
3.590303957462311,89.99695253372192,9.933174282312393,33.150473207235336,rest
-98.25465163588524,40.21140432357788,1.6754751801490784,131.88383203744888,rest
35.184978783130646,98.37432843446732,17.35313579440117,-55.769388139247894,rest
52.17908418178558,115.72746422886848,17.831842988729477,-39.85237392783165,rest
-96.45949965715408,45.95589065551758,4.547718346118927,131.64447844028473,rest
-17.472812592983246,70.8486647605896,17.592489391565323,27.286310076713562,rest
74.07993832230568,119.91615217924118,14.720246225595474,-95.8611156642437,rest
-55.88906493782997,60.79581367969513,2.6328895688056946,104.35816836357117,rest
-76.95218148827553,47.15265864133835,8.736406296491623,91.07404372096062,rest
67.97642159461975,117.04390901327133,21.422146946191788,-96.45949965715408,rest
7.419961512088776,94.18564048409462,4.667395144701004,29.560169249773026,rest
-102.32366278767586,40.33108112215996,5.983839929103851,135.11510559916496,rest
34.466917991638184,96.339822858572,15.797337412834167,-55.05132734775543,rest
42.96397069096565,107.11073473095894,26.5682492852211,-53.25617536902428,rest
-83.53440541028976,48.82813382148743,-14.121862232685089,150.43373581767082,rest
-22.259884536266327,71.32737195491791,8.616729497909546,20.10570216178894,rest
72.16510954499245,123.86548653244972,24.414066910743713,-91.31339731812477,rest
-50.26425540447235,64.14676403999329,4.42804154753685,96.339822858572,rest
-69.2928663790226,45.95589065551758,9.334790289402008,96.81853005290031,rest
65.1041784286499,115.48811063170433,21.30247014760971,-94.66434767842293,rest
0.7180607914924622,86.88535577058792,10.770911872386932,30.278230041265488,rest
-94.42499408125877,41.40817230939865,6.223193526268005,142.41539031267166,rest
32.55208921432495,97.77594444155693,13.28412464261055,-52.538114577531815,rest
48.947810620069504,110.10265469551086,15.917014211416245,-44.75912266969681,rest
-90.23630613088608,43.92138507962227,1.7951519787311554,143.13345110416412,rest
-25.73051169514656,71.68640235066414,5.265779137611389,13.164447844028473,rest
73.84058472514153,118.95873779058456,20.46473255753517,-85.56891098618507,rest
-51.341346591711044,60.07775288820267,5.265779137611389,99.93012681603432,rest
-69.89125037193298,48.469103425741196,3.1115967631340027,95.38240846991539,rest
67.13868400454521,115.72746422886848,21.182793349027634,-92.7495189011097,rest
-2.7525663673877716,88.560830950737,24.89277410507202,18.430226981639862,rest
-95.50208526849747,42.7246170938015,-15.31863021850586,145.64666387438774,rest
28.842108458280563,92.03145810961723,12.566063851118088,-51.93973058462143,rest
46.67395144701004,105.1959059536457,24.294390112161636,-45.35750666260719,rest
-85.9279413819313,45.237829864025116,3.590303957462311,144.92860308289528,rest
-22.259884536266327,72.04543274641037,2.2738591730594635,24.653420507907867,rest
80.66216224431992,123.26710253953934,6.8215775191783905,-92.62984210252762,rest
-50.74296259880066,64.38611763715744,4.188687950372696,99.57109642028809,rest
-78.98668706417084,50.26425540447235,2.1541823744773865,90.59533652663231,rest
69.53221997618675,113.69295865297318,15.438307017087936,-98.61368203163147,rest
-2.6328895688056946,87.24438616633415,13.403801441192627,25.251804500818253,rest
-92.03145810961723,39.97205072641373,-1.6754751801490784,137.5086415708065,rest
22.858268529176712,93.94628688693047,16.87442860007286,-57.08583292365074,rest
54.572620153427124,113.33392825722694,22.379561334848404,-48.58878022432327,rest
-85.32955738902092,44.75912266969681,4.069011151790619,151.6305038034916,rest
-26.328895688056946,70.25028076767921,2.7525663673877716,19.148287773132324,rest
70.72898796200752,117.52261620759964,17.951519787311554,-90.35598292946815,rest
-54.33326655626297,67.01900720596313,2.0345055758953094,98.9727124273777,rest
-75.39638310670853,49.665871411561966,6.8215775191783905,94.42499408125877,rest
66.1812696158886,113.45360505580902,23.576329320669174,-87.36406296491623,rest
1.5557983815670013,87.00503256917,11.488972663879395,30.51758363842964,rest
-101.36624839901924,35.663685977458954,4.188687950372696,136.19219678640366,rest
29.679846048355103,95.50208526849747,17.233458995819092,-48.58878022432327,rest
59.95807608962059,114.88972663879395,17.233458995819092,-46.79362824559212,rest
-88.20180055499077,42.844293892383575,2.1541823744773865,138.5857327580452,rest
-30.63726043701172,64.74514803290367,1.9148287773132324,28.363401263952255,rest
76.23412069678307,120.03582897782326,13.762831836938858,-98.73335883021355,rest
-48.22974982857704,64.6254712343216,7.419961512088776,98.01529803872108,rest
-73.72090792655945,49.18716421723366,5.62480953335762,96.45949965715408,rest
67.61739119887352,115.60778743028641,22.379561334848404,-91.43307411670685,rest
2.5132127702236176,92.62984210252762,8.736406296491623,22.49923813343048,rest
-102.80236998200417,37.93754515051842,4.42804154753685,134.27736800909042,rest
15.438307017087936,89.87727573513985,20.225378960371017,-55.769388139247894,rest
66.42062321305275,115.00940343737602,18.190873384475708,-42.12623310089111,rest
-87.4837397634983,45.716537058353424,2.8722431659698486,138.94476315379143,rest
-28.1240476667881,67.85674479603767,21.063116550445557,17.233458995819092,rest
81.38022303581238,120.63421297073364,16.87442860007286,-88.44115415215492,rest
-49.06748741865158,58.8809849023819,0.8377375900745392,93.82661008834839,rest
-78.1489494740963,45.59686025977135,9.933174282312393,90.95436692237854,rest
67.61739119887352,112.0174834728241,21.900854140520096,-98.13497483730316,rest
3.4706271588802338,87.24438616633415,19.148287773132324,24.055036514997482,rest
-95.26273167133331,37.33916115760803,-2.5132127702236176,144.44989588856697,rest
34.22756439447403,93.46757969260216,21.063116550445557,-51.10199299454689,rest
49.18716421723366,114.0519890487194,14.839923024177551,-50.862639397382736,rest
-86.04761818051338,45.11815306544304,-0.9574143886566162,133.79866081476212,rest
-30.397906839847565,63.787733644247055,23.69600611925125,23.69600611925125,rest
79.7047478556633,123.02774894237518,11.488972663879395,-86.16729497909546,rest
-44.63944587111473,61.394197672605515,2.6328895688056946,95.26273167133331,rest
-74.31929191946983,44.40009227395058,9.215113490819931,92.51016530394554,rest
64.74514803290367,110.10265469551086,19.626994967460632,-100.64818760752678,rest
8.257699102163315,91.31339731812477,13.643155038356781,22.379561334848404,rest
-101.72527879476547,35.06530198454857,4.906748741865158,138.70540955662727,rest
23.81568291783333,89.87727573513985,15.198953419923782,-62.47128885984421,rest
61.63355126976967,110.58136188983917,17.831842988729477,-40.69011151790619,rest
-95.62176206707954,41.40817230939865,1.5557983815670013,137.0299343764782,rest
-28.722431659698486,66.1812696158886,10.770911872386932,24.294390112161636,rest
77.78991907835007,122.4293649494648,19.148287773132324,-92.62984210252762,rest
-46.67395144701004,68.81415918469429,10.172527879476547,99.69077321887016,rest
-74.55864551663399,47.75104263424873,6.342870324850082,97.17756044864655,rest
64.14676403999329,110.10265469551086,17.233458995819092,-97.17756044864655,rest
8.497052699327469,91.672427713871,8.138022303581238,28.483078062534332,rest
-101.00721800327301,34.10788759589195,3.2312735617160797,138.46605595946312,rest
25.37148129940033,90.59533652663231,16.03669100999832,-48.34942662715912,rest
53.25617536902428,111.41909947991371,15.67766061425209,-52.65779137611389,rest
-93.82661008834839,43.20332428812981,5.026425540447235,134.75607520341873,rest
-30.15855324268341,64.38611763715744,10.531558275222778,14.600569427013397,rest
77.0718582868576,118.95873779058456,19.74667176604271,-86.88535577058792,rest
-46.434597849845886,65.58288562297821,8.257699102163315,90.83469012379646,rest
-72.04543274641037,45.237829864025116,0.0,102.68269318342209,rest
61.394197672605515,108.30750271677971,18.90893417596817,-92.7495189011097,rest
10.770911872386932,90.23630613088608,10.292204678058624,22.738591730594635,rest
-99.21206602454185,39.01463633775711,-4.069011151790619,134.27736800909042,rest
22.379561334848404,92.98887249827385,17.113782197237015,-47.272335439920425,rest
54.572620153427124,105.91396674513817,16.395721405744553,-54.21358975768089,rest
-91.55275091528893,42.36558669805527,6.5822239220142365,152.5879181921482,rest
-22.97794532775879,66.89933040738106,6.5822239220142365,26.448572486639023,rest
78.50797986984253,117.04390901327133,22.14020773768425,-94.42499408125877,rest
-50.98231619596481,62.47128885984421,10.770911872386932,84.61149659752846,rest
-77.43088868260384,44.878799468278885,-9.095436692237854,104.7171987593174,rest
63.787733644247055,112.37651386857033,22.858268529176712,-101.6056019961834,rest
11.129942268133163,89.39856854081154,10.292204678058624,27.166633278131485,rest
-101.84495559334755,34.10788759589195,0.11967679858207703,140.26120793819427,rest
21.422146946191788,91.07404372096062,18.54990378022194,-46.31492105126381,rest
52.29876098036766,107.35008832812309,16.395721405744553,-48.469103425741196,rest
-82.21796062588692,48.82813382148743,5.385455936193466,135.71348959207535,rest
-28.243724465370178,64.26644083857536,10.651235073804855,25.251804500818253,rest
74.31929191946983,120.63421297073364,23.456652522087097,-92.7495189011097,rest
-45.35750666260719,64.50579443573952,6.8215775191783905,88.91986134648323,rest
-75.0373527109623,46.19524425268173,11.488972663879395,100.88754120469093,rest
63.06967285275459,112.25683706998825,18.190873384475708,-95.62176206707954,rest
9.933174282312393,88.80018454790115,10.411881476640701,24.89277410507202,rest
-99.21206602454185,36.14239317178726,-0.7180607914924622,134.99542880058289,rest
18.190873384475708,83.17537501454353,17.831842988729477,-54.33326655626297,rest
53.25617536902428,104.95655235648155,22.97794532775879,-52.29876098036766,rest
-77.0718582868576,42.36558669805527,0.4787071943283081,147.80084624886513,rest
-29.919199645519257,62.949996054172516,0.9574143886566162,28.483078062534332,rest
79.22604066133499,114.0519890487194,19.626994967460632,-91.31339731812477,rest
-54.572620153427124,59.12033849954605,13.523478239774704,92.03145810961723,rest
-70.36995756626129,43.56235468387604,-4.787071943283081,97.4169140458107,rest
65.58288562297821,107.11073473095894,18.54990378022194,-91.31339731812477,rest
7.300284713506699,85.9279413819313,11.129942268133163,17.831842988729477,rest
-99.33174282312393,33.03079640865326,6.9412543177604675,138.22670236229897,rest
24.89277410507202,88.32147735357285,14.600569427013397,-42.60494029521942,rest
58.521954506635666,109.98297789692879,16.754751801490784,-50.0249018073082,rest
-82.8163446187973,44.75912266969681,4.906748741865158,143.49248149991035,rest
-35.06530198454857,63.30902644991875,10.770911872386932,19.507318168878555,rest
75.87509030103683,118.00132340192795,23.456652522087097,-98.73335883021355,rest
-41.40817230939865,61.63355126976967,5.385455936193466,94.3053172826767,rest
-78.6276566684246,41.647525906562805,2.7525663673877716,94.3053172826767,rest
63.06967285275459,108.42717951536179,25.491158097982407,-88.91986134648323,rest
6.342870324850082,89.87727573513985,18.07119658589363,13.044771045446396,rest
-97.29723724722862,35.4243323802948,-5.385455936193466,146.12537106871605,rest
17.951519787311554,90.116629332304,16.03669100999832,-49.665871411561966,rest
61.51387447118759,114.41101944446564,16.994105398654938,-48.58878022432327,rest
-88.560830950737,44.519769072532654,5.744486331939697,136.07251998782158,rest
-33.50950360298157,62.83031925559044,8.257699102163315,26.687926083803177,rest
70.48963436484337,113.69295865297318,20.10570216178894,-99.81045001745224,rest
-41.52784910798073,63.18934965133667,8.497052699327469,94.3053172826767,rest
-79.10636386275291,41.52784910798073,3.3509503602981567,98.01529803872108,rest
61.51387447118759,109.14524030685425,19.2679645717144,-94.3053172826767,rest
-0.9574143886566162,84.85085019469261,16.276044607162476,5.983839929103851,rest
-88.44115415215492,43.80170828104019,-1.7951519787311554,147.80084624886513,rest
23.81568291783333,91.31339731812477,3.3509503602981567,-39.253989934921265,rest
49.306841015815735,109.02556350827217,13.643155038356781,-60.915490478277206,rest
-82.57699102163315,43.08364748954773,3.3509503602981567,137.74799516797066,rest
-32.19305881857872,62.47128885984421,11.24961906671524,27.286310076713562,rest
74.31929191946983,115.48811063170433,18.07119658589363,-96.22014605998993,rest
-39.37366673350334,61.394197672605515,8.377375900745392,91.79210451245308,rest
-77.0718582868576,37.45883795619011,6.462547123432159,102.44333958625793,rest
60.67613688111305,106.03364354372025,18.430226981639862,-94.3053172826767,rest
11.848003059625626,87.24438616633415,8.975759893655777,13.28412464261055,rest
-101.48592519760132,34.10788759589195,6.8215775191783905,138.22670236229897,rest
24.53374370932579,87.60341656208038,7.65931510925293,-43.32300108671188,rest
56.128418534994125,105.91396674513817,14.600569427013397,-56.487448930740356,rest
-85.56891098618507,40.57043471932411,6.223193526268005,140.97926872968674,rest
-33.74885720014572,60.79581367969513,9.813497483730316,26.448572486639023,rest
74.07993832230568,112.61586746573448,20.58440935611725,-100.88754120469093,rest
-39.253989934921265,62.35161206126213,7.65931510925293,98.9727124273777,rest
63.787733644247055,101.6056019961834,27.166633278131485,-84.25246620178223,rest
12.326710253953934,87.60341656208038,11.010265469551086,15.797337412834167,rest
-99.21206602454185,34.10788759589195,5.744486331939697,136.79058077931404,rest
15.438307017087936,88.91986134648323,27.40598687529564,-45.59686025977135,rest
59.718722492456436,110.58136188983917,6.7019007205963135,-56.128418534994125,rest
-84.49181979894638,37.69819155335426,4.188687950372696,139.5431471467018,rest
-35.54400917887688,57.56454011797905,12.44638705253601,24.53374370932579,rest
78.86701026558876,118.12100020051003,21.66150054335594,-91.672427713871,rest
-43.20332428812981,62.590965658426285,5.62480953335762,81.85893023014069,rest
-78.1489494740963,42.006556302309036,-10.89058867096901,111.29942268133163,rest
68.93383598327637,109.98297789692879,13.762831836938858,-94.3053172826767,rest
5.62480953335762,87.36406296491623,8.138022303581238,10.531558275222778,rest
-94.90370127558708,32.3127356171608,6.8215775191783905,138.46605595946312,rest
25.251804500818253,86.04761818051338,14.48089262843132,-40.33108112215996,rest
58.28260090947151,108.78620991110802,20.345055758953094,-53.49552896618843,rest
-89.63792213797569,40.33108112215996,1.3164447844028473,136.31187358498573,rest
-34.466917991638184,60.197429686784744,11.967679858207703,29.679846048355103,rest
70.13060396909714,113.09457466006279,21.063116550445557,-96.45949965715408,rest
-42.006556302309036,62.11225846409798,4.42804154753685,87.84277015924454,rest
-80.66216224431992,39.253989934921265,7.180607914924622,101.00721800327301,rest
60.31710648536682,104.23849156498909,19.148287773132324,-90.47565972805023,rest
11.24961906671524,86.28697177767754,17.35313579440117,16.635075002908707,rest
-100.64818760752678,32.07338201999664,4.547718346118927,138.5857327580452,rest
23.576329320669174,87.36406296491623,17.472812592983246,-39.37366673350334,rest
55.53003454208374,105.79428994655609,21.30247014760971,-59.59904569387436,rest
-84.3721430003643,36.26206997036934,0.3590303957462311,140.73991513252258,rest
-41.76720270514488,54.33326655626297,18.430226981639862,29.081462055444717,rest
79.94410145282745,110.22233149409294,5.864163130521774,-95.62176206707954,rest
-31.35532122850418,64.14676403999329,16.994105398654938,90.23630613088608,rest
-78.1489494740963,36.860453963279724,-7.300284713506699,107.11073473095894,rest
62.71064245700836,108.9058867096901,11.24961906671524,-98.25465163588524,rest
10.292204678058624,87.4837397634983,14.839923024177551,19.986025363206863,rest
-99.09238922595978,34.825948387384415,4.42804154753685,136.67090398073196,rest
16.395721405744553,79.10636386275291,15.797337412834167,-36.74077716469765,rest
59.59904569387436,106.75170433521271,17.831842988729477,-57.803893715143204,rest
-82.57699102163315,44.2804154753685,10.292204678058624,137.0299343764782,rest
-35.90303957462311,60.79581367969513,3.949334353208542,28.363401263952255,rest
73.60123112797737,117.64229300618172,19.986025363206863,-91.43307411670685,rest
-45.47718346118927,65.82223922014236,2.9919199645519257,79.46539425849915,rest
-79.46539425849915,35.90303957462311,5.026425540447235,105.79428994655609,rest
64.74514803290367,107.70911872386932,18.190873384475708,-92.39048850536346,rest
14.48089262843132,88.32147735357285,14.361215829849243,19.38764137029648,rest
-95.74143886566162,32.07338201999664,0.5983839929103851,142.65474390983582,rest
15.438307017087936,81.49989983439445,11.728326261043549,-38.77528274059296,rest
54.21358975768089,104.23849156498909,16.87442860007286,-61.753228068351746,rest
-78.86701026558876,42.36558669805527,3.829657554626465,141.57765272259712,rest
-33.8685339987278,57.08583292365074,7.65931510925293,25.610834896564484,rest
75.75541350245476,117.64229300618172,22.49923813343048,-95.8611156642437,rest
-44.878799468278885,63.06967285275459,3.829657554626465,84.25246620178223,rest
-81.73925343155861,39.85237392783165,-0.3590303957462311,100.76786440610886,rest
62.71064245700836,105.31558275222778,23.217298924922943,-92.86919569969177,rest
8.01834550499916,84.3721430003643,16.276044607162476,13.643155038356781,rest
-98.85303562879562,32.55208921432495,11.129942268133163,133.08060002326965,rest
25.491158097982407,86.52632537484169,7.419961512088776,-35.78336277604103,rest
58.28260090947151,107.58944192528725,13.403801441192627,-58.8809849023819,rest
-81.2605462372303,38.894959539175034,4.547718346118927,137.9873487651348,rest
-41.76720270514488,55.53003454208374,10.411881476640701,36.14239317178726,rest
79.10636386275291,115.00940343737602,20.704086154699326,-92.62984210252762,rest
-42.36558669805527,59.83839929103851,6.462547123432159,83.893435806036,rest
-82.21796062588692,39.73269712924957,7.300284713506699,99.93012681603432,rest
62.949996054172516,103.99913796782494,18.54990378022194,-91.07404372096062,rest
11.24961906671524,84.85085019469261,23.935359716415405,3.2312735617160797,rest
-93.34790289402008,32.432412415742874,-10.05285108089447,150.5534126162529,rest
20.10570216178894,85.20988059043884,15.917014211416245,-36.50142356753349,rest
62.949996054172516,106.51235073804855,19.626994967460632,-62.35161206126213,rest
-86.16729497909546,40.809788316488266,1.3164447844028473,133.55930721759796,rest
-40.091727524995804,57.68421691656113,6.8215775191783905,30.51758363842964,rest
76.35379749536514,114.29134264588356,15.797337412834167,-92.15113490819931,rest
-37.219484359025955,59.000661700963974,7.778991907835007,84.3721430003643,rest
-77.43088868260384,39.613020330667496,2.7525663673877716,102.92204678058624,rest
58.40227770805359,102.80236998200417,20.823762953281403,-86.52632537484169,rest
18.190873384475708,86.88535577058792,6.462547123432159,8.497052699327469,rest
-97.53659084439278,33.27015000581741,1.7951519787311554,137.38896477222443,rest
14.720246225595474,80.30313184857368,17.7121661901474,-42.96397069096565,rest
54.45294335484505,103.87946116924286,15.557983815670013,-63.5483800470829,rest
-73.9602615237236,43.682031482458115,-0.7180607914924622,139.42347034811974,rest
-39.73269712924957,57.803893715143204,3.4706271588802338,31.714351624250412,rest
76.83250468969345,110.10265469551086,22.020530939102173,-94.42499408125877,rest
-31.35532122850418,59.12033849954605,6.223193526268005,83.65408220887184,rest
-86.52632537484169,33.74885720014572,6.342870324850082,104.59752196073532,rest
57.08583292365074,101.36624839901924,20.10570216178894,-100.76786440610886,rest
19.986025363206863,93.70693328976631,18.669580578804016,13.762831836938858,rest
-96.22014605998993,29.081462055444717,-6.9412543177604675,141.45797592401505,rest
14.241539031267166,80.54248544573784,15.797337412834167,-37.45883795619011,rest
58.521954506635666,106.2729971408844,16.395721405744553,-64.98450163006783,rest
-87.24438616633415,41.647525906562805,10.05285108089447,129.01158887147903,rest
-36.50142356753349,62.83031925559044,1.9148287773132324,46.19524425268173,rest
72.52413994073868,113.45360505580902,17.233458995819092,-101.36624839901924,rest
-35.90303957462311,63.18934965133667,10.89058867096901,85.80826458334923,rest
-79.7047478556633,36.14239317178726,2.0345055758953094,103.52043077349663,rest
61.27452087402344,103.6401075720787,24.53374370932579,-92.62984210252762,rest
13.044771045446396,83.77375900745392,9.215113490819931,8.736406296491623,rest
-94.3053172826767,31.594674825668335,-1.1967679858207703,143.85151189565659,rest
16.51539820432663,81.14086943864822,15.31863021850586,-34.22756439447403,rest
59.359692096710205,108.18782591819763,15.917014211416245,-66.30094641447067,rest
-77.19153508543968,41.04914191365242,2.1541823744773865,137.38896477222443,rest
-38.416252344846725,58.40227770805359,11.010265469551086,40.809788316488266,rest
73.00284713506699,111.53877627849579,18.07119658589363,-95.14305487275124,rest
-39.13431313633919,60.556460082530975,17.951519787311554,77.55056548118591,rest
-83.77375900745392,37.93754515051842,-11.728326261043549,114.77004984021187,rest
59.59904569387436,101.12689480185509,18.190873384475708,-88.560830950737,rest
19.2679645717144,88.32147735357285,9.813497483730316,9.454467087984085,rest
-100.0498036146164,34.22756439447403,2.3935359716415405,137.86767196655273,rest
13.643155038356781,78.86701026558876,10.292204678058624,-31.474998027086258,rest
64.6254712343216,107.46976512670517,16.1563678085804,-57.20550972223282,rest
-81.61957663297653,36.50142356753349,0.9574143886566162,133.9183376133442,rest
-40.450757920742035,54.45294335484505,9.095436692237854,39.253989934921265,rest
75.99476709961891,114.17166584730148,16.754751801490784,-95.74143886566162,rest
-42.96397069096565,61.03516727685928,3.4706271588802338,81.14086943864822,rest
-78.98668706417084,36.9801307618618,6.5822239220142365,110.4616850912571,rest
58.40227770805359,101.36624839901924,22.379561334848404,-80.42280864715576,rest
21.30247014760971,88.68050774931908,7.300284713506699,6.223193526268005,rest
-93.228226095438,30.876614034175873,3.2312735617160797,143.37280470132828,rest
13.044771045446396,75.99476709961891,9.69382068514824,-36.381746768951416,rest
57.92357051372528,104.35816836357117,14.361215829849243,-62.35161206126213,rest
-79.58507105708122,39.01463633775711,1.7951519787311554,134.63639840483665,rest
-38.416252344846725,52.897144973278046,14.48089262843132,41.40817230939865,rest
68.69448238611221,110.34200829267502,28.96178525686264,-104.7171987593174,rest
-35.06530198454857,60.31710648536682,-1.5557983815670013,83.29505181312561,rest
-78.74733346700668,33.988210797309875,-0.5983839929103851,115.24875703454018,rest
58.04324731230736,102.92204678058624,13.523478239774704,-88.44115415215492,rest
19.2679645717144,87.24438616633415,13.164447844028473,7.898668706417084,rest
-97.17756044864655,28.60275486111641,3.3509503602981567,138.22670236229897,rest
16.1563678085804,80.06377825140953,15.67766061425209,-33.27015000581741,rest
59.24001529812813,106.2729971408844,18.310550183057785,-61.9925816655159,rest
-80.66216224431992,41.52784910798073,6.9412543177604675,136.67090398073196,rest
-39.97205072641373,56.2480953335762,5.505132734775543,34.825948387384415,rest
70.96834155917168,109.02556350827217,15.31863021850586,-100.28915721178055,rest
-33.74885720014572,59.12033849954605,7.778991907835007,87.84277015924454,rest
-85.32955738902092,35.54400917887688,4.308364748954773,109.98297789692879,rest
58.28260090947151,100.88754120469093,23.456652522087097,-86.28697177767754,rest
13.164447844028473,85.56891098618507,16.635075002908707,3.590303957462311,rest
-98.49400523304939,32.67176601290703,1.0770911872386932,140.50056153535843,rest
9.215113490819931,76.71282789111137,10.89058867096901,-34.94562518596649,rest
68.93383598327637,106.75170433521271,20.345055758953094,-58.28260090947151,rest
-79.34571745991707,41.647525906562805,-2.1541823744773865,130.32803365588188,rest
-41.88687950372696,50.503609001636505,9.454467087984085,40.809788316488266,rest
74.07993832230568,110.58136188983917,19.507318168878555,-101.84495559334755,rest
-38.77528274059296,61.27452087402344,15.31863021850586,75.39638310670853,rest
-87.60341656208038,34.34724119305611,0.4787071943283081,108.9058867096901,rest
52.17908418178558,97.65626764297485,21.66150054335594,-94.54467087984085,rest
17.233458995819092,84.61149659752846,17.113782197237015,0.4787071943283081,rest
-99.81045001745224,29.32081565260887,-8.975759893655777,149.59599822759628,rest
13.643155038356781,81.97860702872276,13.28412464261055,-29.081462055444717,rest
67.25836080312729,106.75170433521271,14.959599822759628,-63.30902644991875,rest
-86.04761818051338,37.69819155335426,7.898668706417084,130.2083568572998,rest
-39.37366673350334,54.33326655626297,4.906748741865158,40.809788316488266,rest
78.02927267551422,111.89780667424202,19.148287773132324,-98.13497483730316,rest
-36.26206997036934,59.24001529812813,7.898668706417084,73.00284713506699,rest
-83.05569821596146,32.19305881857872,0.5983839929103851,113.69295865297318,rest
54.81197375059128,97.29723724722862,15.557983815670013,-88.91986134648323,rest
19.2679645717144,85.449234187603,14.600569427013397,5.265779137611389,rest
-95.14305487275124,26.5682492852211,-2.3935359716415405,141.0989455282688,rest
11.967679858207703,75.27670630812645,14.839923024177551,-31.594674825668335,rest
63.787733644247055,106.39267393946648,18.430226981639862,-65.1041784286499,rest
-78.86701026558876,35.4243323802948,5.385455936193466,133.3199536204338,rest
-41.647525906562805,50.503609001636505,11.010265469551086,40.809788316488266,rest
75.63573670387268,108.54685631394386,21.900854140520096,-98.61368203163147,rest
-32.791442811489105,62.949996054172516,9.095436692237854,75.63573670387268,rest
-84.61149659752846,33.629180401563644,2.3935359716415405,108.06814911961555,rest
43.682031482458115,97.05788365006447,16.635075002908707,-88.08212375640869,rest
25.850188493728638,93.58725649118423,11.608649462461472,3.1115967631340027,rest
-100.16948041319847,28.60275486111641,1.9148287773132324,140.6202383339405,rest
14.959599822759628,76.11444389820099,12.326710253953934,-32.3127356171608,rest
68.33545199036598,106.63202753663063,17.7121661901474,-55.290680944919586,rest
-79.94410145282745,37.93754515051842,1.0770911872386932,134.15769121050835,rest
-45.8362138569355,49.42651781439781,9.933174282312393,44.40009227395058,rest
69.7715735733509,107.8287955224514,28.363401263952255,-95.14305487275124,rest
-29.081462055444717,63.90741044282913,0.4787071943283081,75.99476709961891,rest
-82.8163446187973,33.629180401563644,-1.0770911872386932,111.89780667424202,rest
54.33326655626297,97.65626764297485,20.46473255753517,-87.36406296491623,rest
17.233458995819092,86.40664857625961,13.762831836938858,1.9148287773132324,rest
-100.16948041319847,23.69600611925125,-3.4706271588802338,142.53506711125374,rest
15.797337412834167,80.66216224431992,12.44638705253601,-30.038876444101334,rest
55.05132734775543,101.48592519760132,20.10570216178894,-67.49771440029144,rest
-78.1489494740963,40.33108112215996,3.590303957462311,130.32803365588188,rest
-42.485263496637344,51.46102339029312,10.05285108089447,44.63944587111473,rest
74.55864551663399,105.43525955080986,22.379561334848404,-98.01529803872108,rest
-30.278230041265488,61.753228068351746,5.983839929103851,76.11444389820099,rest
-83.53440541028976,35.30465558171272,2.3935359716415405,108.78620991110802,rest
58.04324731230736,100.0498036146164,16.87442860007286,-87.36406296491623,rest
16.276044607162476,84.73117339611053,7.898668706417084,-0.7180607914924622,rest
-96.57917645573616,29.32081565260887,-1.9148287773132324,142.05635991692543,rest
7.539638310670853,76.11444389820099,10.411881476640701,-31.115967631340027,rest
63.18934965133667,104.83687555789948,17.472812592983246,-67.37803760170937,rest
-81.85893023014069,36.9801307618618,-0.8377375900745392,129.49029606580734,rest
-40.809788316488266,49.78554821014404,12.566063851118088,45.11815306544304,rest
72.4044631421566,108.78620991110802,18.54990378022194,-99.69077321887016,rest
-30.397906839847565,63.18934965133667,4.906748741865158,79.58507105708122,rest
-85.80826458334923,30.397906839847565,-2.2738591730594635,108.30750271677971,rest
59.12033849954605,96.69885325431824,22.738591730594635,-81.73925343155861,rest
23.456652522087097,85.20988059043884,15.67766061425209,-2.5132127702236176,rest
-98.37432843446732,27.525663673877716,8.975759893655777,140.26120793819427,rest
13.643155038356781,75.0373527109623,12.44638705253601,-26.08954209089279,rest
61.03516727685928,103.40075397491455,11.848003059625626,-71.92575594782829,rest
-76.23412069678307,38.057221949100494,2.7525663673877716,138.46605595946312,rest
-44.041061878204346,52.538114577531815,7.180607914924622,39.85237392783165,rest
78.86701026558876,107.70911872386932,19.148287773132324,-94.90370127558708,rest
-30.397906839847565,61.27452087402344,13.403801441192627,73.60123112797737,rest
-87.60341656208038,26.448572486639023,0.7180607914924622,110.70103868842125,rest
19.507318168878555,84.25246620178223,16.754751801490784,0.4787071943283081,rest
-93.94628688693047,34.22756439447403,-3.949334353208542,142.7744207084179,rest
6.8215775191783905,76.83250468969345,17.35313579440117,-30.99629083275795,rest
63.90741044282913,100.0498036146164,23.81568291783333,-67.01900720596313,rest
72.88317033648491,106.2729971408844,19.507318168878555,-86.88535577058792,thumb
-76.95218148827553,42.844293892383575,12.08735665678978,107.8287955224514,thumb
-56.60712572932243,35.184978783130646,0.9574143886566162,88.560830950737,thumb
46.55427464842796,104.7171987593174,23.935359716415405,-131.2854480445385,thumb
17.113782197237015,73.00284713506699,10.411881476640701,108.54685631394386,thumb
-80.90151584148407,23.217298924922943,-10.770911872386932,86.52632537484169,thumb
31.594674825668335,84.85085019469261,15.917014211416245,-60.4367832839489,thumb
48.22974982857704,95.26273167133331,22.020530939102173,-47.99039623141289,thumb
-112.37651386857033,30.15855324268341,-12.685740649700165,154.2633933722973,thumb
-1.9148287773132324,62.231935262680054,14.839923024177551,15.198953419923782,thumb
73.36187753081322,112.25683706998825,23.217298924922943,-81.49989983439445,thumb
-80.90151584148407,41.04914191365242,1.9148287773132324,85.32955738902092,thumb
-60.79581367969513,42.96397069096565,8.377375900745392,91.672427713871,thumb
79.10636386275291,106.39267393946648,2.2738591730594635,-172.9329739511013,thumb
-18.789257377386093,64.50579443573952,15.31863021850586,75.5160599052906,thumb
-96.339822858572,28.363401263952255,8.616729497909546,105.55493634939194,thumb
40.57043471932411,88.08212375640869,22.858268529176712,6.103516727685928,thumb
21.063116550445557,89.27889174222946,-1.7951519787311554,-81.61957663297653,thumb
-68.2157751917839,33.629180401563644,2.5132127702236176,172.81329715251923,thumb
-14.839923024177551,58.8809849023819,5.62480953335762,-22.858268529176712,thumb
69.41254317760468,109.62394750118256,19.866348564624786,-93.228226095438,thumb
-55.17100414633751,42.96397069096565,4.069011151790619,126.97708329558372,thumb
-83.53440541028976,34.22756439447403,7.898668706417084,66.77965360879898,thumb
67.61739119887352,101.84495559334755,16.87442860007286,-108.42717951536179,thumb
-9.095436692237854,69.41254317760468,27.046956479549408,48.70845702290535,thumb
-85.80826458334923,26.687926083803177,-2.7525663673877716,146.9631086587906,thumb
75.63573670387268,90.95436692237854,13.164447844028473,-19.2679645717144,thumb
41.04914191365242,102.20398598909378,26.807602882385254,-10.531558275222778,thumb
-144.44989588856697,17.233458995819092,-27.166633278131485,37.81786835193634,thumb
-5.505132734775543,65.1041784286499,25.251804500818253,-2.7525663673877716,thumb
84.73117339611053,104.95655235648155,12.925094246864319,-59.12033849954605,thumb
-72.76349353790283,39.253989934921265,-2.5132127702236176,99.57109642028809,thumb
-53.375852167606354,35.78336277604103,14.361215829849243,114.17166584730148,thumb
73.36187753081322,102.92204678058624,19.626994967460632,-140.02185434103012,thumb
-4.547718346118927,72.4044631421566,14.241539031267166,88.68050774931908,thumb
-102.56301638484001,21.063116550445557,0.5983839929103851,76.71282789111137,thumb
30.15855324268341,85.80826458334923,17.831842988729477,-64.26644083857536,thumb
71.56672555208206,97.4169140458107,44.2804154753685,3.709980756044388,thumb
-102.20398598909378,28.363401263952255,-28.1240476667881,164.79495164752007,thumb
-13.164447844028473,56.487448930740356,-2.6328895688056946,-59.000661700963974,thumb
91.55275091528893,111.53877627849579,22.49923813343048,-71.44704875349998,thumb
-35.4243323802948,40.69011151790619,41.647525906562805,134.75607520341873,thumb
-109.02556350827217,33.74885720014572,-26.687926083803177,56.60712572932243,thumb
57.803893715143204,104.95655235648155,5.146102339029312,-107.11073473095894,thumb
-5.62480953335762,72.88317033648491,17.113782197237015,63.06967285275459,thumb
-91.55275091528893,18.430226981639862,-11.488972663879395,100.0498036146164,thumb
44.041061878204346,84.49181979894638,23.097622126340866,-49.18716421723366,thumb
46.31492105126381,101.12689480185509,21.66150054335594,-59.24001529812813,thumb
-96.93820685148239,25.0124509036541,9.095436692237854,166.231073230505,thumb
-21.30247014760971,61.15484407544136,3.2312735617160797,26.5682492852211,thumb
84.97052699327469,102.68269318342209,35.54400917887688,-54.81197375059128,thumb
-53.49552896618843,52.77746817469597,-13.643155038356781,74.31929191946983,thumb
-87.00503256917,29.44049245119095,-3.3509503602981567,20.823762953281403,thumb
69.17318958044052,101.72527879476547,11.728326261043549,-70.13060396909714,thumb
11.728326261043549,73.12252393364906,10.172527879476547,85.32955738902092,thumb
-91.91178131103516,18.90893417596817,-11.24961906671524,57.08583292365074,thumb
29.679846048355103,85.56891098618507,33.8685339987278,-30.51758363842964,thumb
48.58878022432327,95.38240846991539,11.010265469551086,-12.925094246864319,thumb
-115.24875703454018,25.491158097982407,-5.265779137611389,138.1070255637169,thumb
-10.770911872386932,60.31710648536682,5.505132734775543,0.3590303957462311,thumb
107.8287955224514,113.21425145864487,20.704086154699326,-125.5409617125988,thumb
-50.38393220305443,47.51168903708458,9.69382068514824,220.8036933839321,thumb
-93.58725649118423,27.76501727104187,-5.265779137611389,57.44486331939697,thumb
87.12470936775208,107.94847232103348,29.201138854026794,-53.85455936193466,thumb
-5.265779137611389,70.01092717051506,20.225378960371017,-35.78336277604103,thumb
-119.55712178349495,19.38764137029648,-18.190873384475708,113.45360505580902,thumb
24.653420507907867,79.82442465424538,24.055036514997482,-87.4837397634983,thumb
46.67395144701004,96.81853005290031,7.180607914924622,-30.63726043701172,thumb
-76.35379749536514,26.448572486639023,-14.720246225595474,172.09523636102676,thumb
-47.99039623141289,50.74296259880066,3.590303957462311,-19.2679645717144,thumb
80.54248544573784,107.70911872386932,15.31863021850586,-81.14086943864822,thumb
-28.004370868206024,48.110073029994965,11.010265469551086,122.4293649494648,thumb
-104.83687555789948,30.397906839847565,3.829657554626465,40.57043471932411,thumb
76.71282789111137,100.28915721178055,23.935359716415405,-75.0373527109623,thumb
7.778991907835007,74.91767591238022,4.069011151790619,31.235644429922104,thumb
-85.9279413819313,21.66150054335594,13.403801441192627,163.5981836616993,thumb
66.77965360879898,84.73117339611053,19.2679645717144,-58.28260090947151,thumb
-23.576329320669174,85.9279413819313,-4.906748741865158,-33.150473207235336,thumb
-90.35598292946815,24.055036514997482,3.590303957462311,66.30094641447067,thumb
2.1541823744773865,66.42062321305275,13.403801441192627,56.487448930740356,thumb
108.78620991110802,106.87138113379478,13.28412464261055,-64.6254712343216,thumb
-79.82442465424538,41.647525906562805,17.592489391565323,72.64381673932076,thumb
-63.18934965133667,37.69819155335426,-0.3590303957462311,98.9727124273777,thumb
64.74514803290367,105.43525955080986,2.9919199645519257,-72.64381673932076,thumb
-17.113782197237015,68.45512878894806,6.462547123432159,17.35313579440117,thumb
-101.24657160043716,20.704086154699326,0.23935359716415405,120.03582897782326,thumb
35.06530198454857,84.85085019469261,26.328895688056946,-85.80826458334923,thumb
45.47718346118927,100.5285108089447,-6.103516727685928,-24.89277410507202,thumb
-89.27889174222946,27.046956479549408,14.720246225595474,145.04827988147736,thumb
15.557983815670013,61.15484407544136,19.74667176604271,22.020530939102173,thumb
63.428703248500824,108.54685631394386,15.31863021850586,-97.17756044864655,thumb
-73.72090792655945,46.075567454099655,13.882508635520935,77.31121188402176,thumb
-100.16948041319847,31.35532122850418,15.079276621341705,75.39638310670853,thumb
99.69077321887016,104.95655235648155,16.51539820432663,-28.363401263952255,thumb
12.925094246864319,76.71282789111137,10.292204678058624,36.381746768951416,thumb
-110.4616850912571,20.10570216178894,-8.497052699327469,78.98668706417084,thumb
34.22756439447403,81.85893023014069,19.148287773132324,-57.44486331939697,thumb
51.341346591711044,96.22014605998993,15.198953419923782,-26.687926083803177,thumb
-5.62480953335762,59.47936889529228,-5.983839929103851,3.2312735617160797,thumb
84.3721430003643,110.70103868842125,21.422146946191788,-83.17537501454353,thumb
-56.36777213215828,49.42651781439781,5.864163130521774,115.48811063170433,thumb
-79.82442465424538,29.919199645519257,18.07119658589363,51.341346591711044,thumb
70.96834155917168,103.87946116924286,11.24961906671524,-50.62328580021858,thumb
5.265779137611389,76.11444389820099,4.188687950372696,25.132127702236176,thumb
-87.00503256917,25.37148129940033,4.308364748954773,132.2428624331951,thumb
21.30247014760971,82.45731422305107,17.113782197237015,-87.12470936775208,thumb
44.40009227395058,95.14305487275124,18.430226981639862,-64.50579443573952,thumb
-52.29876098036766,33.629180401563644,13.164447844028473,200.5783144235611,thumb
-67.97642159461975,50.862639397382736,2.9919199645519257,2.2738591730594635,thumb
61.15484407544136,104.11881476640701,23.576329320669174,-116.92423221468925,thumb
-54.81197375059128,46.913305044174194,-1.6754751801490784,102.56301638484001,thumb
-49.90522500872612,39.97205072641373,3.949334353208542,101.48592519760132,thumb
110.34200829267502,107.23041152954102,41.647525906562805,-62.11225846409798,thumb
-23.935359716415405,69.53221997618675,2.2738591730594635,14.121862232685089,thumb
-113.09457466006279,23.33697572350502,-7.300284713506699,120.27518257498741,thumb
33.629180401563644,83.17537501454353,12.08735665678978,-77.55056548118591,thumb
47.51168903708458,98.01529803872108,8.736406296491623,-50.38393220305443,thumb
-87.36406296491623,28.004370868206024,5.864163130521774,160.60626369714737,thumb
-24.055036514997482,60.556460082530975,18.310550183057785,1.7951519787311554,thumb
79.82442465424538,107.46976512670517,28.483078062534332,-90.95436692237854,thumb
-61.03516727685928,44.041061878204346,-6.9412543177604675,115.96681782603264,thumb
-60.4367832839489,40.809788316488266,2.1541823744773865,84.61149659752846,thumb
69.65189677476883,100.76786440610886,17.592489391565323,-106.63202753663063,thumb
-7.300284713506699,70.8486647605896,17.592489391565323,34.10788759589195,thumb
-100.5285108089447,22.020530939102173,5.385455936193466,154.98145416378975,thumb
56.128418534994125,85.09020379185677,29.081462055444717,-65.46320882439613,thumb
63.5483800470829,97.65626764297485,10.05285108089447,-36.74077716469765,thumb
-135.71348959207535,21.66150054335594,-4.42804154753685,126.01966890692711,thumb
-11.608649462461472,57.92357051372528,7.898668706417084,14.361215829849243,thumb
65.46320882439613,106.03364354372025,14.720246225595474,-102.44333958625793,thumb
-47.75104263424873,53.97423616051674,3.4706271588802338,113.5732818543911,thumb
-61.753228068351746,38.17689874768257,6.223193526268005,80.30313184857368,thumb
66.30094641447067,102.20398598909378,29.679846048355103,-107.23041152954102,thumb
12.326710253953934,75.63573670387268,5.864163130521774,53.375852167606354,thumb
-65.58288562297821,28.483078062534332,19.866348564624786,152.46824139356613,thumb
6.7019007205963135,81.61957663297653,-5.146102339029312,-25.73051169514656,thumb
35.4243323802948,95.62176206707954,10.292204678058624,-111.17974588274956,thumb
-96.69885325431824,30.278230041265488,-2.5132127702236176,132.72156962752342,thumb
18.190873384475708,61.51387447118759,20.46473255753517,56.2480953335762,thumb
56.966156125068665,111.65845307707787,14.48089262843132,-91.55275091528893,thumb
-59.83839929103851,47.87071943283081,3.709980756044388,93.58725649118423,thumb
-67.61739119887352,32.07338201999664,-1.0770911872386932,71.80607914924622,thumb
73.12252393364906,99.93012681603432,19.38764137029648,-86.76567897200584,thumb
-14.48089262843132,71.92575594782829,22.738591730594635,48.58878022432327,thumb
-99.81045001745224,25.0124509036541,-5.983839929103851,125.42128491401672,thumb
35.90303957462311,78.38830307126045,12.805417448282242,-87.36406296491623,thumb
47.51168903708458,99.21206602454185,16.994105398654938,-34.70627158880234,thumb
-90.95436692237854,32.3127356171608,3.709980756044388,144.92860308289528,thumb
-19.148287773132324,59.47936889529228,13.044771045446396,5.146102339029312,thumb
78.26862627267838,110.34200829267502,14.959599822759628,-81.02119264006615,thumb
-59.83839929103851,49.306841015815735,8.8560830950737,103.04172357916832,thumb
-100.16948041319847,30.99629083275795,-1.4361215829849243,63.428703248500824,thumb
93.46757969260216,107.11073473095894,25.0124509036541,-89.99695253372192,thumb
8.138022303581238,78.50797986984253,4.188687950372696,36.62110036611557,thumb
-97.77594444155693,22.858268529176712,18.190873384475708,133.55930721759796,thumb
28.842108458280563,85.68858778476715,18.310550183057785,-49.06748741865158,thumb
65.94191601872444,104.11881476640701,1.0770911872386932,-19.626994967460632,thumb
-95.14305487275124,33.38982680439949,8.736406296491623,142.29571351408958,thumb
-45.8362138569355,54.093912959098816,0.8377375900745392,-20.823762953281403,thumb
88.20180055499077,110.34200829267502,11.010265469551086,-105.91396674513817,thumb
-30.876614034175873,52.41843777894974,22.14020773768425,161.4440012872219,thumb
-118.59970739483833,29.32081565260887,-11.967679858207703,38.894959539175034,thumb
66.77965360879898,105.67461314797401,14.720246225595474,-99.57109642028809,thumb
0.3590303957462311,76.11444389820099,6.9412543177604675,28.243724465370178,thumb
-88.560830950737,27.645340472459793,11.369295865297318,171.9755595624447,thumb
22.020530939102173,82.337637424469,12.207033455371857,-73.60123112797737,thumb
41.52784910798073,99.21206602454185,5.864163130521774,-65.58288562297821,thumb
-86.88535577058792,30.397906839847565,8.8560830950737,148.9976142346859,thumb
-20.94343975186348,59.47936889529228,19.148287773132324,20.704086154699326,thumb
73.36187753081322,110.34200829267502,6.462547123432159,-97.17756044864655,thumb
-49.54619461297989,48.947810620069504,3.2312735617160797,109.3845939040184,thumb
-67.37803760170937,32.07338201999664,19.028610974550247,120.99324336647987,thumb
79.82442465424538,104.11881476640701,16.994105398654938,-92.62984210252762,thumb
22.259884536266327,80.18345504999161,13.28412464261055,35.184978783130646,thumb
-141.93668311834335,22.14020773768425,-1.9148287773132324,107.8287955224514,thumb
52.17908418178558,81.14086943864822,9.574143886566162,-44.519769072532654,thumb
32.19305881857872,96.69885325431824,15.31863021850586,-49.78554821014404,thumb
-95.14305487275124,27.286310076713562,15.917014211416245,127.93449768424034,thumb
-23.81568291783333,58.64163130521774,2.8722431659698486,25.969865292310715,thumb
76.95218148827553,106.99105793237686,18.669580578804016,-100.5285108089447,thumb
-39.253989934921265,50.0249018073082,-4.069011151790619,109.02556350827217,thumb
-69.7715735733509,38.29657554626465,7.180607914924622,106.15332034230232,thumb
58.162924110889435,99.21206602454185,20.823762953281403,-101.00721800327301,thumb
8.616729497909546,76.47347429394722,8.01834550499916,36.50142356753349,thumb
-88.80018454790115,25.969865292310715,5.146102339029312,146.3647246658802,thumb
25.0124509036541,80.18345504999161,35.06530198454857,-83.41472861170769,thumb
50.74296259880066,101.96463239192963,7.300284713506699,-42.7246170938015,thumb
-79.7047478556633,30.278230041265488,4.308364748954773,170.898468375206,thumb
-38.17689874768257,50.98231619596481,5.744486331939697,29.679846048355103,thumb
76.71282789111137,109.3845939040184,5.62480953335762,-125.06225451827049,thumb
-30.038876444101334,57.325186520814896,12.805417448282242,117.88164660334587,thumb
-84.61149659752846,28.483078062534332,3.709980756044388,85.68858778476715,thumb
45.716537058353424,107.11073473095894,15.917014211416245,-109.50427070260048,thumb
10.770911872386932,82.09828382730484,6.223193526268005,26.20921888947487,thumb
-102.44333958625793,24.294390112161636,12.566063851118088,140.38088473677635,thumb
62.35161206126213,85.449234187603,9.69382068514824,-45.47718346118927,thumb
19.626994967460632,92.15113490819931,5.62480953335762,-52.05940738320351,thumb
-99.45141962170601,33.03079640865326,2.6328895688056946,137.38896477222443,thumb
-7.898668706417084,56.72680252790451,18.54990378022194,18.190873384475708,thumb
112.25683706998825,117.52261620759964,23.456652522087097,-31.235644429922104,thumb
-87.00503256917,46.55427464842796,1.1967679858207703,50.862639397382736,thumb
-99.09238922595978,29.919199645519257,-11.369295865297318,49.306841015815735,thumb
67.37803760170937,103.1614003777504,11.728326261043549,-87.00503256917,thumb
10.651235073804855,82.93602141737938,22.14020773768425,55.290680944919586,thumb
-91.31339731812477,26.328895688056946,-0.23935359716415405,138.5857327580452,thumb
27.884694069623947,78.1489494740963,16.51539820432663,-106.75170433521271,thumb
46.434597849845886,99.93012681603432,1.6754751801490784,-90.35598292946815,thumb
-95.38240846991539,34.58659479022026,11.010265469551086,205.60473996400833,thumb
-25.73051169514656,54.093912959098816,26.448572486639023,49.90522500872612,thumb
87.72309336066246,110.58136188983917,0.3590303957462311,-101.84495559334755,thumb
-46.075567454099655,54.6922969520092,4.42804154753685,96.69885325431824,thumb
-88.91986134648323,35.54400917887688,13.164447844028473,87.60341656208038,thumb
73.36187753081322,101.48592519760132,19.028610974550247,-89.15921494364738,thumb
11.608649462461472,77.0718582868576,12.326710253953934,21.66150054335594,thumb
-105.79428994655609,25.132127702236176,2.7525663673877716,133.67898401618004,thumb
28.60275486111641,79.22604066133499,11.010265469551086,-51.93973058462143,thumb
71.80607914924622,105.55493634939194,21.78117734193802,-30.876614034175873,thumb
-67.13868400454521,32.07338201999664,9.095436692237854,169.8213771879673,thumb
-63.66805684566498,48.947810620069504,4.787071943283081,-12.685740649700165,thumb
64.74514803290367,106.63202753663063,23.81568291783333,-112.37651386857033,thumb
-37.93754515051842,54.572620153427124,-4.188687950372696,97.53659084439278,thumb
-60.79581367969513,38.77528274059296,7.300284713506699,100.5285108089447,thumb
74.07993832230568,105.1959059536457,33.27015000581741,-64.38611763715744,thumb
-30.99629083275795,76.11444389820099,-3.2312735617160797,-22.259884536266327,thumb
-100.40883401036263,25.850188493728638,21.30247014760971,167.90654841065407,thumb
40.450757920742035,88.80018454790115,-5.265779137611389,-48.947810620069504,thumb
67.61739119887352,100.5285108089447,12.44638705253601,-72.64381673932076,thumb
-103.87946116924286,27.286310076713562,10.531558275222778,133.20027682185173,thumb
-44.75912266969681,53.97423616051674,-9.334790289402008,0.11967679858207703,thumb
101.12689480185509,114.17166584730148,38.057221949100494,-63.18934965133667,thumb
-49.06748741865158,49.665871411561966,-7.300284713506699,68.45512878894806,thumb
-89.15921494364738,28.60275486111641,8.736406296491623,101.12689480185509,thumb
65.70256242156029,99.93012681603432,29.32081565260887,-91.1937205195427,thumb
41.52784910798073,87.96244695782661,7.898668706417084,33.03079640865326,thumb
-128.77223527431488,22.97794532775879,-7.539638310670853,112.0174834728241,thumb
26.5682492852211,81.61957663297653,4.667395144701004,-57.44486331939697,thumb
69.7715735733509,103.99913796782494,44.75912266969681,2.8722431659698486,thumb
-57.44486331939697,35.30465558171272,-9.334790289402008,117.52261620759964,thumb
-13.762831836938858,58.04324731230736,29.560169249773026,61.9925816655159,thumb
54.931650549173355,104.35816836357117,17.592489391565323,-111.53877627849579,thumb
-71.68640235066414,49.78554821014404,-6.8215775191783905,66.89933040738106,thumb
-52.897144973278046,34.22756439447403,-8.497052699327469,87.00503256917,thumb
30.397906839847565,97.17756044864655,7.180607914924622,-77.90959587693214,thumb
-2.6328895688056946,86.88535577058792,18.07119658589363,-10.531558275222778,thumb
-97.4169140458107,25.132127702236176,4.547718346118927,141.81700631976128,thumb
19.507318168878555,87.96244695782661,15.797337412834167,-44.99847626686096,thumb
62.11225846409798,107.35008832812309,22.379561334848404,-39.13431313633919,thumb
-78.86701026558876,31.235644429922104,-0.4787071943283081,147.20246225595474,thumb
-39.253989934921265,54.093912959098816,2.1541823744773865,8.257699102163315,thumb
74.67832231521606,106.03364354372025,19.507318168878555,-80.42280864715576,thumb
-26.328895688056946,56.36777213215828,24.17471331357956,101.36624839901924,thumb
-80.30313184857368,32.91111961007118,0.7180607914924622,95.14305487275124,thumb
102.44333958625793,106.2729971408844,17.113782197237015,-104.59752196073532,thumb
-25.0124509036541,80.30313184857368,3.1115967631340027,17.113782197237015,thumb
-134.15769121050835,21.900854140520096,16.51539820432663,138.22670236229897,thumb
27.884694069623947,81.14086943864822,18.07119658589363,-33.8685339987278,thumb
65.82223922014236,102.32366278767586,6.342870324850082,-74.31929191946983,thumb
-103.75978437066078,31.953705221414566,3.709980756044388,145.52698707580566,thumb
-7.0609311163425446,50.26425540447235,0.23935359716415405,29.32081565260887,thumb
69.53221997618675,107.94847232103348,9.215113490819931,-92.15113490819931,thumb
-21.422146946191788,54.45294335484505,28.96178525686264,124.82290092110634,thumb
-90.71501332521439,26.448572486639023,-9.095436692237854,71.08801835775375,thumb
31.115967631340027,100.5285108089447,7.180607914924622,-127.33611369132996,thumb
25.610834896564484,78.86701026558876,15.67766061425209,65.22385522723198,thumb
-98.73335883021355,21.063116550445557,4.667395144701004,127.81482088565826,thumb
14.839923024177551,80.30313184857368,0.11967679858207703,-60.197429686784744,thumb
81.02119264006615,107.58944192528725,17.472812592983246,-42.24590989947319,thumb
-107.70911872386932,30.397906839847565,4.308364748954773,128.1738512814045,thumb
-51.22166979312897,53.01682177186012,2.3935359716415405,16.754751801490784,thumb
93.46757969260216,113.09457466006279,18.430226981639862,-82.8163446187973,thumb
-30.876614034175873,55.05132734775543,19.866348564624786,86.28697177767754,thumb
-112.37651386857033,30.397906839847565,-10.531558275222778,92.51016530394554,thumb
68.69448238611221,103.1614003777504,19.38764137029648,-84.49181979894638,thumb
24.055036514997482,86.28697177767754,13.28412464261055,38.17689874768257,thumb
-119.7964753806591,22.738591730594635,-2.7525663673877716,110.82071548700333,thumb
27.40598687529564,79.22604066133499,16.635075002908707,-49.54619461297989,thumb
101.36624839901924,103.40075397491455,23.81568291783333,-51.5807001888752,thumb
-126.13934570550919,29.679846048355103,-1.5557983815670013,149.83535182476044,thumb
-47.3920122385025,47.99039623141289,-1.3164447844028473,14.48089262843132,thumb
87.60341656208038,112.97489786148071,8.257699102163315,-113.21425145864487,thumb
-11.608649462461472,61.15484407544136,23.81568291783333,129.84932646155357,thumb
-97.77594444155693,27.76501727104187,-3.4706271588802338,106.15332034230232,thumb
49.78554821014404,98.13497483730316,10.292204678058624,-119.07841458916664,thumb
2.1541823744773865,83.17537501454353,20.94343975186348,8.616729497909546,thumb
-92.15113490819931,21.900854140520096,-10.172527879476547,143.13345110416412,thumb
14.241539031267166,81.38022303581238,20.345055758953094,-46.913305044174194,thumb
93.70693328976631,103.04172357916832,23.217298924922943,-56.487448930740356,thumb
-66.77965360879898,33.988210797309875,-5.983839929103851,155.57983815670013,thumb
-97.65626764297485,50.26425540447235,-6.7019007205963135,-12.207033455371857,thumb
84.97052699327469,112.0174834728241,37.69819155335426,-100.64818760752678,thumb
-34.34724119305611,68.2157751917839,19.866348564624786,148.27955344319344,thumb
-87.60341656208038,26.5682492852211,-6.462547123432159,48.58878022432327,thumb
65.82223922014236,98.01529803872108,14.241539031267166,-111.89780667424202,thumb
19.626994967460632,81.85893023014069,7.300284713506699,44.041061878204346,thumb
-99.21206602454185,25.491158097982407,7.419961512088776,150.19438222050667,thumb
14.48089262843132,74.19961512088776,18.430226981639862,-55.41035774350166,thumb
59.95807608962059,106.87138113379478,6.9412543177604675,-73.12252393364906,thumb
-70.13060396909714,42.36558669805527,3.709980756044388,153.54533258080482,thumb
81.49989983439445,115.72746422886848,22.858268529176712,-117.7619698047638,thumb
-44.041061878204346,55.769388139247894,1.0770911872386932,86.04761818051338,thumb
-89.03953814506531,27.645340472459793,1.9148287773132324,108.54685631394386,thumb
47.15265864133835,99.21206602454185,12.08735665678978,-111.29942268133163,thumb
16.754751801490784,85.80826458334923,14.241539031267166,11.728326261043549,thumb
-83.05569821596146,26.92727968096733,11.24961906671524,228.1039780974388,thumb
24.414066910743713,81.85893023014069,34.58659479022026,-41.647525906562805,thumb
32.91111961007118,99.45141962170601,-6.462547123432159,-162.88012287020683,thumb
-76.23412069678307,33.629180401563644,8.616729497909546,156.89628294110298,thumb
-51.341346591711044,50.26425540447235,-12.685740649700165,10.651235073804855,thumb
102.20398598909378,110.58136188983917,26.5682492852211,-85.09020379185677,thumb
-53.25617536902428,53.25617536902428,9.334790289402008,84.25246620178223,thumb
-92.86919569969177,31.35532122850418,4.906748741865158,108.78620991110802,thumb
67.49771440029144,102.68269318342209,6.9412543177604675,-102.32366278767586,thumb
22.14020773768425,83.65408220887184,10.172527879476547,-1.3164447844028473,thumb
-94.66434767842293,24.17471331357956,13.164447844028473,180.59228906035423,thumb
11.488972663879395,80.78183904290199,16.87442860007286,-28.842108458280563,thumb
63.18934965133667,109.74362429976463,18.789257377386093,-75.27670630812645,thumb
-85.9279413819313,31.474998027086258,11.848003059625626,127.21643689274788,thumb
-62.590965658426285,50.0249018073082,-1.5557983815670013,38.17689874768257,thumb
80.54248544573784,107.70911872386932,27.166633278131485,-110.58136188983917,thumb
-13.403801441192627,67.49771440029144,-12.685740649700165,86.16729497909546,thumb
-87.60341656208038,29.79952284693718,13.643155038356781,108.18782591819763,thumb
53.1364985704422,101.36624839901924,12.326710253953934,-94.66434767842293,thumb
4.787071943283081,82.69666782021523,5.744486331939697,-15.917014211416245,thumb
-89.39856854081154,25.73051169514656,3.1115967631340027,157.49466693401337,thumb
25.610834896564484,77.31121188402176,19.507318168878555,-46.075567454099655,thumb
55.290680944919586,106.15332034230232,11.608649462461472,-36.860453963279724,thumb
-84.73117339611053,32.432412415742874,-5.385455936193466,145.8860174715519,thumb
-7.0609311163425446,50.98231619596481,24.653420507907867,36.74077716469765,thumb
41.76720270514488,103.28107717633247,17.951519787311554,-134.27736800909042,thumb
-53.49552896618843,56.00874173641205,11.369295865297318,94.66434767842293,thumb
-81.73925343155861,34.10788759589195,2.5132127702236176,117.16358581185341,thumb
65.58288562297821,103.40075397491455,13.403801441192627,-83.65408220887184,thumb
28.842108458280563,82.09828382730484,12.685740649700165,2.0345055758953094,thumb
-94.06596368551254,28.722431659698486,6.8215775191783905,144.44989588856697,thumb
11.369295865297318,78.26862627267838,13.762831836938858,-47.15265864133835,thumb
58.40227770805359,101.6056019961834,16.276044607162476,-53.1364985704422,thumb
-121.47195056080818,31.235644429922104,-1.5557983815670013,130.8067408502102,thumb
-16.51539820432663,53.375852167606354,-6.5822239220142365,37.09980756044388,thumb
79.58507105708122,108.54685631394386,19.028610974550247,-121.95065775513649,thumb
-36.860453963279724,59.83839929103851,8.01834550499916,133.08060002326965,thumb
-96.93820685148239,32.55208921432495,11.728326261043549,129.37061926722527,thumb
78.74733346700668,104.83687555789948,22.49923813343048,-118.59970739483833,thumb
21.900854140520096,87.72309336066246,3.590303957462311,-11.010265469551086,thumb
-122.66871854662895,25.850188493728638,6.462547123432159,114.17166584730148,thumb
24.653420507907867,77.67024227976799,25.251804500818253,-17.592489391565323,thumb
54.093912959098816,99.33174282312393,19.028610974550247,-79.82442465424538,thumb
-82.45731422305107,34.58659479022026,-9.095436692237854,119.3177681863308,thumb
-31.594674825668335,52.65779137611389,11.728326261043549,51.5807001888752,thumb
113.81263545155525,118.83906099200249,53.734882563352585,-78.38830307126045,thumb
-46.31492105126381,58.162924110889435,1.3164447844028473,79.34571745991707,thumb
-126.85740649700165,27.884694069623947,-22.379561334848404,67.49771440029144,thumb
87.00503256917,101.72527879476547,22.49923813343048,-74.31929191946983,thumb
28.1240476667881,90.47565972805023,5.265779137611389,14.361215829849243,thumb
-124.94257771968842,27.166633278131485,5.983839929103851,137.14961117506027,thumb
10.770911872386932,80.66216224431992,16.395721405744553,-33.150473207235336,thumb
76.83250468969345,105.31558275222778,25.491158097982407,-54.81197375059128,thumb
-75.75541350245476,35.663685977458954,-19.507318168878555,111.89780667424202,thumb
-51.10199299454689,50.74296259880066,12.925094246864319,48.58878022432327,thumb
98.49400523304939,116.32584822177887,25.37148129940033,-74.67832231521606,thumb
-47.99039623141289,58.04324731230736,-6.103516727685928,29.081462055444717,thumb
-82.93602141737938,26.5682492852211,3.590303957462311,191.96158492565155,thumb
49.42651781439781,101.00721800327301,16.395721405744553,-127.69514408707619,thumb
30.63726043701172,90.35598292946815,16.754751801490784,-9.813497483730316,thumb
-116.32584822177887,22.020530939102173,-0.3590303957462311,157.3749901354313,thumb
8.497052699327469,79.58507105708122,16.754751801490784,-70.72898796200752,thumb
75.27670630812645,102.92204678058624,16.994105398654938,-66.54030001163483,thumb
-69.65189677476883,35.4243323802948,-6.5822239220142365,120.39485937356949,thumb
-55.64971134066582,50.862639397382736,18.789257377386093,60.07775288820267,thumb
82.337637424469,109.3845939040184,2.3935359716415405,-107.46976512670517,thumb
-59.24001529812813,57.20550972223282,4.787071943283081,84.13278940320015,thumb
-65.22385522723198,33.629180401563644,7.180607914924622,131.88383203744888,thumb
52.05940738320351,99.21206602454185,21.422146946191788,-99.93012681603432,thumb
17.831842988729477,86.40664857625961,10.292204678058624,2.8722431659698486,thumb
-103.75978437066078,23.33697572350502,5.983839929103851,175.20683312416077,thumb
24.055036514997482,79.34571745991707,23.69600611925125,-39.613020330667496,thumb
58.64163130521774,107.70911872386932,12.44638705253601,-72.88317033648491,thumb
-80.18345504999161,38.65560594201088,-13.882508635520935,103.99913796782494,thumb
-30.397906839847565,47.3920122385025,16.276044607162476,77.43088868260384,thumb
64.86482483148575,111.29942268133163,10.292204678058624,-140.1415311396122,thumb
-28.004370868206024,61.394197672605515,17.472812592983246,77.19153508543968,thumb
-81.85893023014069,29.201138854026794,-1.3164447844028473,130.44771045446396,thumb
64.14676403999329,101.12689480185509,17.113782197237015,-98.25465163588524,thumb
22.97794532775879,89.51824533939362,19.028610974550247,25.491158097982407,thumb
-127.33611369132996,24.53374370932579,-2.2738591730594635,115.72746422886848,thumb
12.326710253953934,74.91767591238022,16.395721405744553,-45.237829864025116,thumb
78.86701026558876,113.5732818543911,5.864163130521774,-71.20769515633583,thumb
-85.32955738902092,37.09980756044388,3.590303957462311,150.5534126162529,thumb
-49.06748741865158,54.093912959098816,8.616729497909546,97.17756044864655,thumb
80.06377825140953,114.0519890487194,16.395721405744553,-109.26491710543633,thumb
-23.097622126340866,62.590965658426285,10.651235073804855,68.09609839320183,thumb
-104.47784516215324,22.858268529176712,1.6754751801490784,61.394197672605515,thumb
60.197429686784744,99.93012681603432,15.917014211416245,-88.44115415215492,thumb
42.96397069096565,89.63792213797569,27.166633278131485,25.0124509036541,thumb
-112.13716027140617,24.414066910743713,-3.590303957462311,158.69143491983414,thumb
-9.334790289402008,72.04543274641037,7.898668706417084,-51.5807001888752,thumb
85.56891098618507,111.89780667424202,9.69382068514824,-63.5483800470829,thumb
-84.13278940320015,35.663685977458954,3.2312735617160797,125.06225451827049,thumb
-42.006556302309036,44.63944587111473,7.300284713506699,38.057221949100494,thumb
109.02556350827217,107.70911872386932,33.988210797309875,-88.44115415215492,thumb
-70.60931116342545,59.83839929103851,-4.42804154753685,53.85455936193466,thumb
-94.42499408125877,28.722431659698486,8.616729497909546,121.3522737622261,thumb
56.128418534994125,99.21206602454185,11.24961906671524,-115.72746422886848,thumb
54.81197375059128,90.71501332521439,21.900854140520096,57.44486331939697,thumb
-102.80236998200417,26.448572486639023,3.3509503602981567,130.92641764879227,thumb
-0.7180607914924622,72.04543274641037,12.685740649700165,-48.22974982857704,thumb
68.69448238611221,106.51235073804855,5.62480953335762,-24.53374370932579,thumb
-88.08212375640869,36.62110036611557,5.864163130521774,103.28107717633247,thumb
-44.63944587111473,53.49552896618843,1.4361215829849243,22.379561334848404,thumb
77.19153508543968,110.82071548700333,21.541823744773865,-89.39856854081154,thumb
-37.09980756044388,63.66805684566498,4.188687950372696,56.72680252790451,thumb
-91.55275091528893,28.96178525686264,17.7121661901474,145.64666387438774,thumb
81.85893023014069,101.6056019961834,17.35313579440117,-85.68858778476715,thumb
27.645340472459793,86.52632537484169,14.121862232685089,-16.754751801490784,thumb
-115.48811063170433,22.14020773768425,-2.3935359716415405,137.0299343764782,thumb
13.28412464261055,74.43896871805191,11.010265469551086,-31.474998027086258,thumb
86.28697177767754,107.23041152954102,28.1240476667881,-64.74514803290367,thumb
-119.7964753806591,27.525663673877716,-4.188687950372696,107.70911872386932,thumb
-29.919199645519257,50.0249018073082,13.882508635520935,107.23041152954102,thumb
80.90151584148407,108.30750271677971,15.198953419923782,-160.72594049572945,thumb
-30.51758363842964,59.83839929103851,6.8215775191783905,72.76349353790283,thumb
-89.75759893655777,27.046956479549408,-0.4787071943283081,124.94257771968842,thumb
60.197429686784744,95.74143886566162,18.789257377386093,-106.2729971408844,thumb
21.30247014760971,86.28697177767754,18.789257377386093,-6.462547123432159,thumb
-111.53877627849579,23.217298924922943,-1.9148287773132324,142.89409750699997,thumb
43.32300108671188,77.67024227976799,19.028610974550247,-19.028610974550247,thumb
38.5359291434288,104.35816836357117,23.217298924922943,-54.45294335484505,thumb
-70.8486647605896,39.13431313633919,-18.669580578804016,116.08649462461472,thumb
-56.36777213215828,49.90522500872612,7.778991907835007,40.450757920742035,thumb
124.46387052536011,114.65037304162979,22.738591730594635,-76.47347429394722,thumb
-69.2928663790226,56.72680252790451,5.385455936193466,80.06377825140953,thumb
-87.4837397634983,35.06530198454857,4.547718346118927,100.76786440610886,thumb
75.15702950954437,97.77594444155693,25.850188493728638,-60.79581367969513,thumb
14.361215829849243,86.16729497909546,11.129942268133163,-46.075567454099655,thumb
-108.9058867096901,21.30247014760971,-16.87442860007286,127.33611369132996,thumb
8.975759893655777,67.97642159461975,18.789257377386093,3.3509503602981567,thumb
81.38022303581238,112.61586746573448,13.523478239774704,-62.47128885984421,thumb
-94.90370127558708,33.988210797309875,-4.547718346118927,95.26273167133331,thumb
-56.00874173641205,43.32300108671188,10.411881476640701,42.006556302309036,thumb
88.560830950737,106.63202753663063,28.60275486111641,-99.81045001745224,thumb
-33.50950360298157,61.27452087402344,-1.4361215829849243,77.0718582868576,thumb
-85.32955738902092,28.004370868206024,-1.6754751801490784,130.6870640516281,thumb
61.87290486693382,98.01529803872108,17.233458995819092,-96.339822858572,thumb
-2.8722431659698486,90.35598292946815,20.225378960371017,-26.20921888947487,thumb
-104.47784516215324,23.33697572350502,-11.967679858207703,160.12755650281906,thumb
10.651235073804855,75.5160599052906,9.454467087984085,-34.466917991638184,thumb
84.85085019469261,112.4961906671524,23.217298924922943,-44.2804154753685,thumb
-92.62984210252762,37.45883795619011,4.308364748954773,111.89780667424202,thumb
-42.24590989947319,44.63944587111473,4.787071943283081,51.22166979312897,thumb
84.13278940320015,113.81263545155525,19.74667176604271,-81.73925343155861,thumb
-39.01463633775711,67.25836080312729,6.5822239220142365,44.041061878204346,thumb
-90.47565972805023,23.576329320669174,14.600569427013397,110.9403922855854,thumb
53.61520576477051,99.09238922595978,13.762831836938858,-43.80170828104019,thumb
31.35532122850418,90.47565972805023,21.66150054335594,-38.17689874768257,thumb
-107.94847232103348,22.259884536266327,-10.89058867096901,126.73772969841957,thumb
9.813497483730316,70.96834155917168,11.24961906671524,-35.90303957462311,thumb
74.19961512088776,111.17974588274956,12.805417448282242,-50.98231619596481,thumb
-86.16729497909546,34.94562518596649,5.265779137611389,133.67898401618004,thumb
-38.5359291434288,44.75912266969681,6.103516727685928,69.2928663790226,thumb
74.43896871805191,111.65845307707787,14.241539031267166,-140.26120793819427,thumb
1.9148287773132324,65.82223922014236,8.257699102163315,97.17756044864655,thumb
-124.70322412252426,24.773097306489944,0.4787071943283081,123.38677933812141,thumb
80.90151584148407,101.72527879476547,27.046956479549408,-78.74733346700668,thumb
-0.11967679858207703,87.84277015924454,4.547718346118927,-48.110073029994965,thumb
-104.59752196073532,20.704086154699326,-1.5557983815670013,150.79276621341705,thumb
4.308364748954773,71.80607914924622,16.395721405744553,-15.557983815670013,thumb
75.87509030103683,105.79428994655609,18.190873384475708,-60.915490478277206,thumb
-57.68421691656113,34.70627158880234,7.419961512088776,177.83972269296646,thumb
-86.52632537484169,40.450757920742035,-3.2312735617160797,-31.83402842283249,thumb
86.28697177767754,110.70103868842125,27.286310076713562,-88.91986134648323,thumb
-14.600569427013397,61.51387447118759,3.949334353208542,75.27670630812645,thumb
-93.94628688693047,24.055036514997482,7.0609311163425446,133.43963041901588,thumb
75.63573670387268,98.37432843446732,23.81568291783333,-80.78183904290199,thumb
14.600569427013397,88.91986134648323,11.728326261043549,14.002185434103012,thumb
-95.8611156642437,29.679846048355103,-1.1967679858207703,106.51235073804855,thumb
6.223193526268005,71.20769515633583,8.497052699327469,-27.76501727104187,thumb
75.0373527109623,108.54685631394386,23.576329320669174,-71.56672555208206,thumb
-92.15113490819931,37.69819155335426,-2.6328895688056946,133.55930721759796,thumb
-49.90522500872612,45.8362138569355,6.5822239220142365,83.17537501454353,thumb
68.69448238611221,108.42717951536179,13.403801441192627,-145.2876334786415,thumb
-20.58440935611725,62.949996054172516,-3.590303957462311,61.753228068351746,thumb
-82.93602141737938,27.166633278131485,17.592489391565323,163.35883006453514,thumb
29.32081565260887,95.26273167133331,4.188687950372696,-116.92423221468925,thumb
34.825948387384415,93.10854929685593,8.8560830950737,-15.797337412834167,thumb
-101.00721800327301,24.653420507907867,11.728326261043549,160.00787970423698,thumb
9.095436692237854,73.12252393364906,2.6328895688056946,-36.74077716469765,thumb
60.4367832839489,106.63202753663063,17.35313579440117,-84.13278940320015,thumb
-86.40664857625961,37.81786835193634,-6.103516727685928,148.87793743610382,thumb
-19.626994967460632,49.665871411561966,8.377375900745392,69.41254317760468,thumb
58.8809849023819,108.30750271677971,17.951519787311554,-105.1959059536457,thumb
-29.919199645519257,63.06967285275459,8.257699102163315,67.61739119887352,thumb
-96.45949965715408,27.166633278131485,-5.62480953335762,122.19001135230064,thumb
61.27452087402344,93.58725649118423,13.164447844028473,-109.98297789692879,thumb
20.94343975186348,89.15921494364738,13.164447844028473,-14.720246225595474,thumb
-83.53440541028976,26.08954209089279,2.7525663673877716,175.20683312416077,thumb
0.23935359716415405,70.96834155917168,15.797337412834167,-24.53374370932579,thumb
58.521954506635666,107.23041152954102,10.172527879476547,-102.44333958625793,thumb
-55.17100414633751,39.13431313633919,33.150473207235336,177.36101549863815,thumb
-72.64381673932076,46.434597849845886,-12.925094246864319,87.84277015924454,thumb
-20.704086154699326,61.87290486693382,15.079276621341705,71.32737195491791,thumb
-94.06596368551254,24.53374370932579,0.7180607914924622,123.38677933812141,thumb
56.36777213215828,97.89562124013901,23.81568291783333,-79.82442465424538,thumb
39.85237392783165,90.59533652663231,18.669580578804016,-24.414066910743713,thumb
-109.3845939040184,26.807602882385254,-8.377375900745392,149.9550286233425,thumb
0.7180607914924622,68.57480558753014,13.28412464261055,-20.345055758953094,thumb
70.60931116342545,105.31558275222778,13.523478239774704,-90.47565972805023,thumb
-66.42062321305275,42.36558669805527,15.079276621341705,162.0423852801323,thumb
-42.96397069096565,45.35750666260719,16.87442860007286,62.71064245700836,thumb
70.96834155917168,110.10265469551086,13.28412464261055,-138.1070255637169,thumb
-36.62110036611557,64.86482483148575,-11.967679858207703,124.82290092110634,thumb
-101.6056019961834,29.919199645519257,7.0609311163425446,78.6276566684246,thumb
57.08583292365074,96.339822858572,12.805417448282242,-97.29723724722862,thumb
39.01463633775711,90.23630613088608,14.839923024177551,1.9148287773132324,thumb
-109.74362429976463,24.414066910743713,6.8215775191783905,168.50493240356445,thumb
2.6328895688056946,71.08801835775375,16.87442860007286,-42.24590989947319,thumb
70.60931116342545,108.54685631394386,22.738591730594635,-78.50797986984253,thumb
-63.428703248500824,42.006556302309036,0.5983839929103851,144.21054229140282,thumb
-48.22974982857704,47.15265864133835,7.539638310670853,59.359692096710205,thumb
50.144578605890274,103.87946116924286,13.882508635520935,-131.2854480445385,thumb
-14.241539031267166,68.33545199036598,2.2738591730594635,75.99476709961891,thumb
-72.28478634357452,31.474998027086258,8.377375900745392,138.5857327580452,thumb
42.006556302309036,96.22014605998993,17.472812592983246,-85.09020379185677,thumb
40.92946511507034,95.02337807416916,10.89058867096901,-24.414066910743713,thumb
-115.24875703454018,25.0124509036541,4.308364748954773,154.62242376804352,thumb
16.994105398654938,68.57480558753014,19.148287773132324,12.207033455371857,thumb
73.60123112797737,111.53877627849579,17.472812592983246,-106.87138113379478,thumb
-109.02556350827217,36.62110036611557,-5.505132734775543,124.70322412252426,thumb
-55.05132734775543,44.99847626686096,16.03669100999832,102.80236998200417,thumb
86.76567897200584,111.29942268133163,22.49923813343048,-159.4094957113266,thumb
-31.594674825668335,63.66805684566498,-2.5132127702236176,50.862639397382736,thumb
-93.228226095438,25.610834896564484,19.866348564624786,146.8434318602085,thumb
50.38393220305443,97.05788365006447,9.334790289402008,-73.84058472514153,thumb
53.61520576477051,90.71501332521439,8.736406296491623,-15.67766061425209,thumb
-136.19219678640366,19.866348564624786,-5.505132734775543,120.51453617215157,thumb
1.3164447844028473,72.16510954499245,18.430226981639862,-8.01834550499916,thumb
86.28697177767754,111.17974588274956,11.24961906671524,-76.71282789111137,thumb
-77.67024227976799,38.416252344846725,5.62480953335762,132.8412464261055,thumb
-54.931650549173355,40.57043471932411,8.257699102163315,66.1812696158886,thumb
82.69666782021523,110.9403922855854,13.523478239774704,-120.51453617215157,thumb
-48.22974982857704,57.68421691656113,4.308364748954773,72.52413994073868,thumb
-74.55864551663399,26.448572486639023,7.0609311163425446,137.5086415708065,thumb
57.68421691656113,91.91178131103516,16.03669100999832,-96.22014605998993,thumb
41.88687950372696,94.3053172826767,23.456652522087097,24.773097306489944,thumb
-110.4616850912571,24.294390112161636,19.2679645717144,159.64884930849075,thumb
26.5682492852211,69.05351278185844,1.0770911872386932,-27.166633278131485,thumb
40.57043471932411,103.6401075720787,2.3935359716415405,-133.67898401618004,thumb
-75.5160599052906,39.85237392783165,-2.1541823744773865,144.68924948573112,thumb
-52.29876098036766,45.35750666260719,8.377375900745392,51.10199299454689,thumb
96.57917645573616,106.75170433521271,19.74667176604271,-106.03364354372025,thumb
-51.93973058462143,60.07775288820267,1.6754751801490784,56.487448930740356,thumb
-88.20180055499077,29.32081565260887,5.62480953335762,143.97118869423866,thumb
60.07775288820267,94.784024477005,25.610834896564484,-48.947810620069504,thumb
38.77528274059296,93.10854929685593,12.326710253953934,-48.82813382148743,thumb
-97.65626764297485,27.884694069623947,5.026425540447235,133.67898401618004,thumb
-5.265779137611389,65.82223922014236,6.8215775191783905,-25.850188493728638,thumb
80.18345504999161,109.14524030685425,17.472812592983246,-63.428703248500824,thumb
-78.26862627267838,39.13431313633919,1.9148287773132324,110.82071548700333,thumb
-51.22166979312897,44.40009227395058,18.669580578804016,93.70693328976631,thumb
64.86482483148575,106.75170433521271,9.334790289402008,-104.83687555789948,thumb
-16.1563678085804,67.37803760170937,13.164447844028473,104.7171987593174,thumb
-111.77812987565994,20.704086154699326,2.2738591730594635,57.68421691656113,thumb
71.20769515633583,95.74143886566162,17.951519787311554,-89.15921494364738,thumb
31.474998027086258,89.03953814506531,7.0609311163425446,-9.574143886566162,thumb
-109.02556350827217,24.53374370932579,0.4787071943283081,149.23696783185005,thumb
18.430226981639862,70.72898796200752,14.361215829849243,7.180607914924622,thumb
63.18934965133667,106.51235073804855,10.292204678058624,-91.07404372096062,thumb
-79.94410145282745,39.85237392783165,3.829657554626465,113.81263545155525,thumb
-65.82223922014236,43.20332428812981,11.488972663879395,65.82223922014236,thumb
87.60341656208038,109.3845939040184,16.276044607162476,-105.79428994655609,thumb
-4.188687950372696,68.69448238611221,10.411881476640701,60.915490478277206,thumb
-121.3522737622261,21.66150054335594,-2.1541823744773865,133.55930721759796,thumb
66.42062321305275,95.26273167133331,19.986025363206863,-97.53659084439278,thumb
44.878799468278885,94.18564048409462,24.414066910743713,-5.864163130521774,thumb
-112.85522106289864,22.379561334848404,-14.002185434103012,120.51453617215157,thumb
-1.1967679858207703,67.7370679974556,9.933174282312393,-9.933174282312393,thumb
63.30902644991875,103.04172357916832,24.414066910743713,-88.80018454790115,thumb
-64.02708724141121,42.36558669805527,7.0609311163425446,148.15987664461136,thumb
-62.35161206126213,40.92946511507034,4.42804154753685,31.594674825668335,thumb
77.67024227976799,104.35816836357117,12.805417448282242,-106.15332034230232,thumb
-14.959599822759628,62.949996054172516,1.7951519787311554,68.33545199036598,thumb
-91.79210451245308,24.17471331357956,5.385455936193466,126.85740649700165,thumb
62.590965658426285,92.27081170678139,21.182793349027634,-38.65560594201088,thumb
22.858268529176712,91.43307411670685,22.14020773768425,8.736406296491623,thumb
-109.3845939040184,24.17471331357956,14.720246225595474,85.20988059043884,thumb
3.4706271588802338,65.82223922014236,-10.770911872386932,-42.006556302309036,thumb
74.79799911379814,106.15332034230232,10.05285108089447,-78.02927267551422,thumb
-70.36995756626129,36.022716373205185,0.11967679858207703,117.16358581185341,thumb
-57.325186520814896,37.45883795619011,15.079276621341705,87.72309336066246,thumb
99.57109642028809,111.06006908416748,24.773097306489944,-100.28915721178055,thumb
-44.041061878204346,67.37803760170937,-8.616729497909546,38.416252344846725,thumb
-103.1614003777504,19.626994967460632,9.574143886566162,119.91615217924118,thumb
51.5807001888752,93.46757969260216,24.294390112161636,-51.700376987457275,thumb
43.80170828104019,89.99695253372192,8.377375900745392,-36.022716373205185,thumb
-114.77004984021187,22.49923813343048,1.0770911872386932,137.38896477222443,thumb
-15.67766061425209,63.30902644991875,9.454467087984085,-10.89058867096901,thumb
100.64818760752678,114.41101944446564,21.30247014760971,-38.894959539175034,thumb
-76.5931510925293,39.613020330667496,2.1541823744773865,78.86701026558876,thumb
-74.91767591238022,35.663685977458954,21.900854140520096,51.46102339029312,thumb
82.45731422305107,111.41909947991371,0.9574143886566162,-73.36187753081322,thumb
-8.736406296491623,68.09609839320183,12.207033455371857,27.525663673877716,thumb
-90.35598292946815,22.020530939102173,-0.9574143886566162,135.4741359949112,thumb
41.288495510816574,89.51824533939362,13.643155038356781,-82.337637424469,thumb
27.525663673877716,90.116629332304,9.215113490819931,-10.531558275222778,thumb
-90.95436692237854,25.251804500818253,14.720246225595474,173.29200434684753,thumb
11.967679858207703,64.26644083857536,19.2679645717144,1.9148287773132324,thumb
52.41843777894974,104.23849156498909,9.933174282312393,-132.60189282894135,thumb
-77.90959587693214,44.519769072532654,2.5132127702236176,138.94476315379143,thumb
-59.47936889529228,41.04914191365242,11.848003059625626,77.19153508543968,thumb
83.29505181312561,109.86330109834671,19.028610974550247,-107.58944192528725,thumb
-25.132127702236176,63.787733644247055,4.069011151790619,27.884694069623947,thumb
-92.39048850536346,25.610834896564484,6.9412543177604675,135.71348959207535,thumb
52.77746817469597,89.51824533939362,11.010265469551086,-78.86701026558876,thumb
45.59686025977135,88.68050774931908,19.507318168878555,-14.241539031267166,thumb
-92.62984210252762,21.66150054335594,7.778991907835007,168.98363959789276,thumb
-25.132127702236176,66.42062321305275,3.2312735617160797,-42.485263496637344,thumb
70.01092717051506,104.7171987593174,31.235644429922104,-93.46757969260216,thumb
-49.18716421723366,42.96397069096565,0.0,184.18259301781654,thumb
-82.337637424469,33.27015000581741,-2.2738591730594635,36.14239317178726,thumb
77.31121188402176,106.75170433521271,11.967679858207703,-123.26710253953934,thumb
-14.839923024177551,65.94191601872444,15.797337412834167,49.54619461297989,thumb
-91.43307411670685,25.132127702236176,10.172527879476547,138.46605595946312,thumb
58.162924110889435,89.75759893655777,15.557983815670013,-75.39638310670853,thumb
52.29876098036766,94.54467087984085,7.778991907835007,-34.70627158880234,thumb
-113.33392825722694,21.900854140520096,4.308364748954773,148.5189070403576,thumb
-9.454467087984085,67.25836080312729,19.866348564624786,-3.3509503602981567,thumb
82.45731422305107,106.39267393946648,12.44638705253601,-75.39638310670853,thumb
-81.14086943864822,38.17689874768257,-2.9919199645519257,131.2854480445385,thumb
-63.66805684566498,40.57043471932411,8.736406296491623,54.093912959098816,thumb
91.07404372096062,109.62394750118256,1.1967679858207703,-107.58944192528725,thumb
-25.132127702236176,64.6254712343216,9.933174282312393,55.769388139247894,thumb
-66.1812696158886,30.756937235593796,19.626994967460632,191.48287773132324,thumb
17.113782197237015,85.9279413819313,13.28412464261055,-154.86177736520767,thumb
34.94562518596649,91.79210451245308,3.709980756044388,-27.286310076713562,thumb
-104.95655235648155,25.73051169514656,4.069011151790619,139.90217754244804,thumb
-8.257699102163315,63.5483800470829,7.419961512088776,-4.42804154753685,thumb
90.95436692237854,109.50427070260048,19.866348564624786,-57.08583292365074,thumb
-61.51387447118759,40.69011151790619,1.0770911872386932,155.34048455953598,thumb
-84.61149659752846,33.03079640865326,-0.7180607914924622,32.3127356171608,thumb
74.79799911379814,106.03364354372025,19.2679645717144,-119.67679858207703,thumb
-7.180607914924622,70.48963436484337,6.462547123432159,50.0249018073082,thumb
-103.04172357916832,23.81568291783333,-2.5132127702236176,147.56149265170097,thumb
47.15265864133835,88.44115415215492,17.7121661901474,-73.4815543293953,thumb
42.96397069096565,97.17756044864655,20.823762953281403,-27.525663673877716,thumb
-99.93012681603432,22.97794532775879,-0.8377375900745392,134.75607520341873,thumb
-28.96178525686264,58.162924110889435,5.62480953335762,-26.20921888947487,thumb
91.55275091528893,105.1959059536457,18.789257377386093,-83.893435806036,thumb
-73.24220073223114,38.77528274059296,17.831842988729477,160.60626369714737,thumb
-38.17689874768257,42.24590989947319,-0.8377375900745392,66.42062321305275,thumb
54.45294335484505,96.22014605998993,-8.01834550499916,-149.71567502617836,thumb
-18.310550183057785,67.85674479603767,14.839923024177551,51.22166979312897,thumb
-97.4169140458107,22.858268529176712,11.728326261043549,160.9652940928936,thumb
79.46539425849915,90.95436692237854,20.46473255753517,-43.44267788529396,thumb
14.48089262843132,89.99695253372192,-2.8722431659698486,-64.6254712343216,thumb
-117.88164660334587,22.14020773768425,2.6328895688056946,150.67308941483498,thumb
-5.864163130521774,64.6254712343216,23.217298924922943,10.770911872386932,thumb
76.95218148827553,105.31558275222778,10.411881476640701,-112.97489786148071,thumb
-61.63355126976967,39.73269712924957,-7.0609311163425446,108.54685631394386,thumb
-64.14676403999329,36.26206997036934,8.138022303581238,81.73925343155861,thumb
78.38830307126045,101.6056019961834,25.969865292310715,-106.2729971408844,thumb
-4.42804154753685,67.37803760170937,8.377375900745392,64.98450163006783,thumb
-109.3845939040184,23.456652522087097,-1.7951519787311554,131.88383203744888,thumb
49.42651781439781,86.64600217342377,12.925094246864319,-63.5483800470829,thumb
70.01092717051506,96.339822858572,17.233458995819092,-26.08954209089279,thumb
-132.60189282894135,21.182793349027634,-8.01834550499916,123.86548653244972,thumb
-22.259884536266327,61.9925816655159,7.898668706417084,-26.328895688056946,thumb
94.42499408125877,108.18782591819763,20.704086154699326,-81.14086943864822,thumb
-63.18934965133667,43.20332428812981,17.35313579440117,126.6180528998375,thumb
-85.9279413819313,31.594674825668335,-3.1115967631340027,64.26644083857536,thumb
86.28697177767754,108.66653311252594,19.148287773132324,-93.228226095438,thumb
-14.361215829849243,66.54030001163483,5.864163130521774,46.55427464842796,thumb
-101.84495559334755,19.2679645717144,12.326710253953934,147.56149265170097,thumb
48.110073029994965,87.12470936775208,26.807602882385254,-84.97052699327469,thumb
52.65779137611389,94.06596368551254,7.419961512088776,-32.3127356171608,thumb
-111.65845307707787,21.422146946191788,-0.3590303957462311,135.11510559916496,thumb
-2.8722431659698486,59.24001529812813,6.223193526268005,10.531558275222778,thumb
64.38611763715744,104.95655235648155,19.626994967460632,-94.90370127558708,thumb
-81.49989983439445,40.69011151790619,5.744486331939697,109.14524030685425,thumb
-45.59686025977135,37.81786835193634,12.08735665678978,88.68050774931908,thumb
90.83469012379646,104.7171987593174,21.541823744773865,-110.58136188983917,thumb
-10.651235073804855,64.14676403999329,5.265779137611389,37.09980756044388,thumb
-97.05788365006447,21.900854140520096,-3.949334353208542,128.6525584757328,thumb
31.83402842283249,83.77375900745392,17.592489391565323,-47.87071943283081,thumb
58.04324731230736,92.62984210252762,16.51539820432663,-10.89058867096901,thumb
-96.45949965715408,19.986025363206863,3.4706271588802338,160.4865868985653,thumb
-33.629180401563644,56.2480953335762,0.9574143886566162,-51.10199299454689,thumb
68.33545199036598,104.47784516215324,11.967679858207703,-106.63202753663063,thumb
-63.18934965133667,42.844293892383575,10.89058867096901,126.49837610125542,thumb
-65.22385522723198,35.90303957462311,28.1240476667881,73.24220073223114,thumb
90.95436692237854,111.89780667424202,0.0,-62.231935262680054,thumb
-10.89058867096901,67.13868400454521,-7.180607914924622,21.78117734193802,thumb
-103.28107717633247,19.74667176604271,5.864163130521774,128.53288167715073,thumb
44.40009227395058,88.91986134648323,16.635075002908707,-68.33545199036598,thumb
20.225378960371017,90.116629332304,9.574143886566162,-33.629180401563644,thumb
-77.90959587693214,33.03079640865326,1.6754751801490784,157.73402053117752,thumb
-6.5822239220142365,61.9925816655159,11.010265469551086,-2.5132127702236176,thumb
65.46320882439613,103.6401075720787,19.028610974550247,-99.33174282312393,thumb
-68.69448238611221,42.006556302309036,9.334790289402008,140.38088473677635,thumb
-64.02708724141121,39.85237392783165,-0.7180607914924622,87.60341656208038,thumb
83.53440541028976,104.35816836357117,12.925094246864319,-108.06814911961555,thumb
-110.70103868842125,18.669580578804016,-8.616729497909546,114.29134264588356,thumb
51.82005378603935,88.08212375640869,16.635075002908707,-71.44704875349998,thumb
55.53003454208374,96.45949965715408,23.935359716415405,15.67766061425209,thumb
-109.74362429976463,24.294390112161636,2.2738591730594635,109.62394750118256,thumb
-7.419961512088776,59.12033849954605,3.829657554626465,-8.257699102163315,thumb
85.56891098618507,109.3845939040184,18.430226981639862,-96.69885325431824,thumb
-83.41472861170769,42.485263496637344,7.539638310670853,114.17166584730148,thumb
-53.1364985704422,36.62110036611557,18.310550183057785,102.44333958625793,thumb
73.4815543293953,106.15332034230232,7.65931510925293,-115.72746422886848,thumb
-10.05285108089447,64.98450163006783,3.949334353208542,40.091727524995804,thumb
-103.99913796782494,22.618914932012558,10.05285108089447,129.2509424686432,thumb
45.237829864025116,89.51824533939362,12.805417448282242,-78.6276566684246,thumb
59.95807608962059,96.93820685148239,23.935359716415405,-0.11967679858207703,thumb
-113.33392825722694,26.92727968096733,11.129942268133163,123.14742574095726,thumb
-35.54400917887688,55.290680944919586,10.411881476640701,5.146102339029312,thumb
105.91396674513817,115.1290802359581,-9.69382068514824,-68.45512878894806,thumb
-65.46320882439613,42.844293892383575,2.2738591730594635,89.63792213797569,thumb
-70.8486647605896,33.629180401563644,5.146102339029312,70.8486647605896,thumb
70.36995756626129,99.21206602454185,19.148287773132324,-100.5285108089447,thumb
5.265779137611389,70.25028076767921,10.770911872386932,45.59686025977135,thumb
-107.46976512670517,20.704086154699326,4.787071943283081,135.23478239774704,thumb
24.53374370932579,85.20988059043884,2.7525663673877716,-91.55275091528893,thumb
54.931650549173355,92.86919569969177,15.67766061425209,-36.62110036611557,thumb
-91.1937205195427,25.969865292310715,8.975759893655777,159.64884930849075,thumb
-7.180607914924622,57.44486331939697,11.010265469551086,1.9148287773132324,thumb
82.21796062588692,107.46976512670517,14.121862232685089,-81.61957663297653,thumb
-64.6254712343216,42.60494029521942,6.9412543177604675,106.39267393946648,thumb
-78.26862627267838,29.201138854026794,10.411881476640701,90.59533652663231,thumb
81.49989983439445,105.31558275222778,23.33697572350502,-73.60123112797737,thumb
-11.608649462461472,66.54030001163483,5.146102339029312,-17.831842988729477,thumb
-109.14524030685425,19.507318168878555,-1.0770911872386932,154.2633933722973,thumb
41.288495510816574,86.16729497909546,16.395721405744553,-79.58507105708122,thumb
58.28260090947151,93.94628688693047,27.645340472459793,15.797337412834167,thumb
-99.45141962170601,24.773097306489944,-6.7019007205963135,166.59010362625122,thumb
-23.69600611925125,59.95807608962059,8.01834550499916,-62.83031925559044,thumb
71.80607914924622,105.43525955080986,16.51539820432663,-113.81263545155525,thumb
-61.27452087402344,39.49334353208542,10.172527879476547,123.14742574095726,thumb
-70.25028076767921,32.3127356171608,11.369295865297318,115.36843383312225,thumb
90.95436692237854,104.11881476640701,13.882508635520935,-87.96244695782661,thumb
-14.241539031267166,67.01900720596313,38.77528274059296,5.62480953335762,thumb
-104.59752196073532,28.243724465370178,-40.809788316488266,131.7641552388668,thumb
43.44267788529396,88.08212375640869,12.44638705253601,-75.27670630812645,thumb
54.931650549173355,92.98887249827385,16.395721405744553,-6.9412543177604675,thumb
-98.37432843446732,23.097622126340866,0.23935359716415405,137.0299343764782,thumb
-25.132127702236176,57.44486331939697,24.53374370932579,9.574143886566162,thumb
81.73925343155861,106.39267393946648,9.69382068514824,-101.96463239192963,thumb
-63.18934965133667,39.01463633775711,3.590303957462311,123.74580973386765,thumb
-53.1364985704422,33.03079640865326,5.62480953335762,85.449234187603,thumb
47.51168903708458,100.88754120469093,16.395721405744553,-99.93012681603432,thumb
-2.6328895688056946,68.33545199036598,5.62480953335762,37.45883795619011,thumb
-101.00721800327301,23.935359716415405,0.9574143886566162,101.12689480185509,thumb
42.36558669805527,89.03953814506531,24.055036514997482,0.8377375900745392,thumb
46.075567454099655,93.70693328976631,15.917014211416245,-73.72090792655945,thumb
-98.85303562879562,25.251804500818253,-4.667395144701004,162.76044607162476,thumb
-12.44638705253601,57.56454011797905,10.531558275222778,-14.361215829849243,thumb
85.32955738902092,105.1959059536457,17.113782197237015,-92.15113490819931,thumb
-68.69448238611221,45.95589065551758,10.172527879476547,126.25902250409126,thumb
-71.20769515633583,32.67176601290703,1.0770911872386932,91.55275091528893,thumb
57.92357051372528,97.89562124013901,24.773097306489944,-120.63421297073364,thumb
4.069011151790619,71.32737195491791,-3.2312735617160797,25.610834896564484,thumb
-99.09238922595978,20.94343975186348,-0.23935359716415405,154.62242376804352,thumb
47.3920122385025,85.9279413819313,11.369295865297318,-70.48963436484337,thumb
35.663685977458954,92.27081170678139,19.148287773132324,-44.40009227395058,thumb
-76.95218148827553,27.76501727104187,17.35313579440117,170.41976118087769,thumb
-33.50950360298157,54.093912959098816,9.69382068514824,-29.44049245119095,thumb
86.52632537484169,107.46976512670517,3.4706271588802338,-84.13278940320015,thumb
-69.05351278185844,41.647525906562805,4.906748741865158,131.40512484312057,thumb
-69.65189677476883,32.3127356171608,9.813497483730316,58.40227770805359,thumb
88.91986134648323,105.55493634939194,17.592489391565323,-89.03953814506531,thumb
7.778991907835007,70.60931116342545,14.361215829849243,49.42651781439781,thumb
-124.82290092110634,20.704086154699326,-2.5132127702236176,122.19001135230064,thumb
34.58659479022026,83.77375900745392,9.813497483730316,-69.53221997618675,thumb
41.647525906562805,90.95436692237854,31.714351624250412,-19.74667176604271,thumb
-102.68269318342209,22.618914932012558,-8.736406296491623,120.27518257498741,thumb
-14.48089262843132,58.28260090947151,6.7019007205963135,8.497052699327469,thumb
81.2605462372303,104.83687555789948,10.172527879476547,-91.43307411670685,thumb
-63.06967285275459,41.40817230939865,10.89058867096901,99.81045001745224,thumb
-72.76349353790283,32.91111961007118,-3.1115967631340027,86.40664857625961,thumb
74.31929191946983,100.28915721178055,18.310550183057785,-100.40883401036263,thumb
-6.8215775191783905,70.60931116342545,-3.829657554626465,25.73051169514656,thumb
-90.95436692237854,23.456652522087097,17.7121661901474,184.78097701072693,thumb
53.85455936193466,86.52632537484169,9.574143886566162,-76.47347429394722,thumb
39.253989934921265,92.7495189011097,14.959599822759628,-48.82813382148743,thumb
-108.54685631394386,19.866348564624786,-2.3935359716415405,122.66871854662895,thumb
-16.03669100999832,56.966156125068665,11.848003059625626,8.8560830950737,thumb
74.91767591238022,103.04172357916832,24.89277410507202,-85.68858778476715,thumb
-54.572620153427124,43.80170828104019,-6.462547123432159,111.29942268133163,thumb
-71.20769515633583,29.679846048355103,8.736406296491623,93.46757969260216,thumb
66.77965360879898,100.28915721178055,25.969865292310715,-115.00940343737602,thumb
9.574143886566162,72.4044631421566,5.983839929103851,43.32300108671188,thumb
-117.7619698047638,17.233458995819092,-17.35313579440117,122.07033455371857,thumb
46.67395144701004,80.90151584148407,27.525663673877716,-41.76720270514488,thumb
47.75104263424873,96.339822858572,11.608649462461472,-49.78554821014404,thumb
-101.24657160043716,24.055036514997482,0.8377375900745392,140.97926872968674,thumb
-5.385455936193466,59.359692096710205,19.2679645717144,25.850188493728638,thumb
81.2605462372303,107.46976512670517,9.69382068514824,-95.8611156642437,thumb
-62.71064245700836,44.75912266969681,0.3590303957462311,101.72527879476547,thumb
-71.08801835775375,29.679846048355103,15.079276621341705,101.6056019961834,thumb
71.08801835775375,101.00721800327301,20.94343975186348,-109.62394750118256,thumb
5.864163130521774,71.44704875349998,12.805417448282242,27.286310076713562,thumb
-111.06006908416748,19.507318168878555,0.3590303957462311,125.42128491401672,thumb
18.669580578804016,77.67024227976799,11.010265469551086,-51.93973058462143,thumb
64.98450163006783,98.9727124273777,7.65931510925293,-41.76720270514488,thumb
-85.449234187603,26.807602882385254,2.7525663673877716,143.97118869423866,thumb
-28.243724465370178,57.68421691656113,18.310550183057785,28.1240476667881,thumb
67.13868400454521,108.18782591819763,16.994105398654938,-114.29134264588356,thumb
-39.13431313633919,44.40009227395058,-2.5132127702236176,96.69885325431824,thumb
-71.56672555208206,29.679846048355103,13.643155038356781,98.9727124273777,thumb
60.31710648536682,100.76786440610886,27.645340472459793,-120.27518257498741,thumb
4.188687950372696,74.55864551663399,-1.1967679858207703,95.98079246282578,thumb
-103.52043077349663,20.345055758953094,5.265779137611389,119.91615217924118,thumb
20.345055758953094,78.74733346700668,1.3164447844028473,-96.22014605998993,thumb
61.9925816655159,96.93820685148239,14.839923024177551,-40.33108112215996,thumb
-93.70693328976631,27.76501727104187,3.3509503602981567,151.75018060207367,thumb
-29.919199645519257,51.10199299454689,13.882508635520935,-0.23935359716415405,thumb
84.3721430003643,111.17974588274956,15.557983815670013,-64.14676403999329,thumb
-49.665871411561966,41.76720270514488,19.2679645717144,111.06006908416748,thumb
-93.10854929685593,26.448572486639023,-14.241539031267166,48.947810620069504,thumb
82.57699102163315,104.47784516215324,12.925094246864319,-98.73335883021355,thumb
22.618914932012558,77.78991907835007,17.831842988729477,51.46102339029312,thumb
-116.92423221468925,21.541823744773865,2.5132127702236176,128.6525584757328,thumb
26.20921888947487,78.1489494740963,11.608649462461472,-58.04324731230736,thumb
58.162924110889435,98.37432843446732,20.823762953281403,-40.21140432357788,thumb
-83.29505181312561,25.850188493728638,-1.7951519787311554,130.08868005871773,thumb
-23.217298924922943,54.21358975768089,13.882508635520935,3.1115967631340027,thumb
63.18934965133667,99.09238922595978,5.505132734775543,-101.72527879476547,thumb
-45.716537058353424,51.46102339029312,6.223193526268005,108.06814911961555,thumb
-70.13060396909714,35.54400917887688,19.028610974550247,119.7964753806591,thumb
64.86482483148575,100.28915721178055,8.138022303581238,-100.0498036146164,thumb
-13.28412464261055,72.4044631421566,7.898668706417084,24.055036514997482,thumb
-92.51016530394554,20.10570216178894,8.736406296491623,140.97926872968674,thumb
34.94562518596649,78.38830307126045,9.454467087984085,-48.34942662715912,thumb
64.98450163006783,95.98079246282578,22.259884536266327,-48.110073029994965,thumb
-101.84495559334755,27.884694069623947,-4.308364748954773,124.22451692819595,thumb
-28.1240476667881,55.290680944919586,16.1563678085804,22.858268529176712,thumb
73.60123112797737,100.0498036146164,11.010265469551086,-110.4616850912571,thumb
-24.89277410507202,48.58878022432327,22.379561334848404,141.81700631976128,thumb
-115.24875703454018,22.49923813343048,2.2738591730594635,48.58878022432327,thumb
81.14086943864822,109.14524030685425,3.3509503602981567,-90.95436692237854,thumb
3.709980756044388,73.72090792655945,6.7019007205963135,27.40598687529564,thumb
-101.6056019961834,20.704086154699326,11.608649462461472,147.08278545737267,thumb
51.22166979312897,80.78183904290199,13.28412464261055,-56.00874173641205,thumb
46.79362824559212,96.81853005290031,12.207033455371857,-34.10788759589195,thumb
-95.8611156642437,26.807602882385254,12.805417448282242,157.49466693401337,thumb
-28.60275486111641,50.62328580021858,24.53374370932579,-8.497052699327469,thumb
76.95218148827553,107.70911872386932,-9.574143886566162,-90.23630613088608,thumb
-48.82813382148743,48.34942662715912,7.0609311163425446,118.12100020051003,thumb
-78.86701026558876,31.953705221414566,12.685740649700165,101.36624839901924,thumb
95.8611156642437,104.11881476640701,19.148287773132324,-97.05788365006447,thumb
-19.866348564624786,67.61739119887352,3.590303957462311,-16.635075002908707,thumb
-106.51235073804855,19.626994967460632,0.0,127.69514408707619,thumb
21.900854140520096,78.6276566684246,15.797337412834167,-64.26644083857536,thumb
71.56672555208206,103.52043077349663,7.300284713506699,-21.30247014760971,thumb
-79.7047478556633,25.37148129940033,19.74667176604271,153.06662538647652,thumb
-43.56235468387604,51.82005378603935,-3.949334353208542,15.557983815670013,thumb
77.0718582868576,109.26491710543633,15.079276621341705,-116.6848786175251,thumb
-59.47936889529228,45.59686025977135,4.667395144701004,112.13716027140617,thumb
-77.19153508543968,28.842108458280563,20.225378960371017,102.92204678058624,thumb
73.60123112797737,102.20398598909378,18.789257377386093,-117.88164660334587,thumb
5.265779137611389,73.9602615237236,-1.4361215829849243,16.994105398654938,thumb
-98.61368203163147,17.233458995819092,2.2738591730594635,169.58202359080315,thumb
26.328895688056946,79.46539425849915,15.797337412834167,-69.05351278185844,thumb
59.24001529812813,96.10046926140785,19.866348564624786,-54.572620153427124,thumb
-95.02337807416916,25.73051169514656,11.010265469551086,159.64884930849075,thumb
-26.328895688056946,51.700376987457275,-1.4361215829849243,21.30247014760971,thumb
76.23412069678307,104.95655235648155,13.882508635520935,-95.38240846991539,thumb
-58.162924110889435,44.63944587111473,7.0609311163425446,32.67176601290703,thumb
-78.02927267551422,25.37148129940033,9.813497483730316,94.06596368551254,thumb
65.34353202581406,102.68269318342209,10.292204678058624,-64.38611763715744,thumb
9.095436692237854,72.28478634357452,12.685740649700165,31.474998027086258,thumb
-107.35008832812309,20.46473255753517,13.882508635520935,179.03649067878723,thumb
26.5682492852211,72.64381673932076,21.063116550445557,-18.310550183057785,thumb
58.04324731230736,95.02337807416916,9.095436692237854,-95.26273167133331,thumb
-93.34790289402008,27.645340472459793,-1.6754751801490784,123.9851633310318,thumb
-40.809788316488266,53.61520576477051,8.01834550499916,9.933174282312393,thumb
98.25465163588524,106.63202753663063,14.600569427013397,-80.30313184857368,thumb
-64.98450163006783,47.63136583566666,9.454467087984085,100.16948041319847,thumb
-62.11225846409798,27.286310076713562,6.342870324850082,96.22014605998993,thumb
51.93973058462143,98.49400523304939,11.848003059625626,-106.15332034230232,thumb
5.864163130521774,76.23412069678307,16.276044607162476,24.414066910743713,thumb
-105.07622915506363,18.669580578804016,-0.8377375900745392,125.42128491401672,thumb
47.75104263424873,79.46539425849915,20.823762953281403,-26.807602882385254,thumb
59.12033849954605,101.12689480185509,7.778991907835007,-25.132127702236176,thumb
-106.99105793237686,24.414066910743713,-6.8215775191783905,113.33392825722694,thumb
-31.594674825668335,49.42651781439781,20.94343975186348,15.198953419923782,thumb
93.58725649118423,108.06814911961555,12.44638705253601,-79.46539425849915,thumb
-57.325186520814896,48.469103425741196,8.138022303581238,95.26273167133331,thumb
-82.21796062588692,27.166633278131485,9.095436692237854,104.47784516215324,thumb
83.29505181312561,104.11881476640701,8.8560830950737,-91.79210451245308,thumb
0.3590303957462311,76.11444389820099,8.257699102163315,0.9574143886566162,thumb
-107.94847232103348,18.90893417596817,5.265779137611389,155.34048455953598,thumb
32.07338201999664,76.95218148827553,20.704086154699326,-42.36558669805527,thumb
58.162924110889435,98.73335883021355,4.547718346118927,-77.55056548118591,thumb
-77.19153508543968,34.466917991638184,8.975759893655777,155.6995149552822,thumb
-36.62110036611557,54.45294335484505,6.5822239220142365,13.523478239774704,thumb
57.325186520814896,103.6401075720787,7.898668706417084,-104.11881476640701,thumb
-29.79952284693718,49.06748741865158,14.361215829849243,107.70911872386932,thumb
-78.1489494740963,25.37148129940033,-9.454467087984085,96.93820685148239,thumb
72.76349353790283,103.04172357916832,8.01834550499916,-94.18564048409462,thumb
